# == pyFAI calibration ==
# Distance Sample to Detector: 0.2945755399789714 m
# PONI: 2.880e-01, 2.450e-01 m
# Rotations: -0.007291 -0.010887 -0.000000 rad
# 
# == Fit2d calibration ==
# Distance Sample-beamCenter: 294.601 mm
# Center: x=1437.174, y=1655.617 pix
# Tilt: 0.751 deg  TiltPlanRot: -56.193 deg
# 
# Detector Pilatus CdTe 2M	 PixelSize= 1.720e-04, 1.720e-04 m
#    Detector has a mask: True 
#    Detector has a dark current: False 
#    detector has a flat field: False 
# 
# Wavelength: 2.0732883349524408e-11 m
# Mask applied: from detector
# Dark current applied: False
# Flat field applied: False
# Polarization factor: 0.9
# Normalization factor: 1.0
# --> /gpfs/current/raw/empty_cap/cap_20231023_183613_00005.dat
#        q_A^-1             I 
  3.263564e-02             nan
  8.563974e-02             nan
  1.386438e-01             nan
  1.916479e-01             nan
  2.446520e-01    9.092692e-02
  2.976561e-01    1.923811e-02
  3.506602e-01    1.653915e-02
  4.036643e-01    4.988102e-02
  4.566684e-01    1.021271e-02
  5.096725e-01    3.549604e-02
  5.626766e-01    2.234734e-02
  6.156807e-01    1.303278e-02
  6.686848e-01    1.981005e-02
  7.216890e-01    2.875556e-02
  7.746931e-01    1.954800e-02
  8.276972e-01    1.940969e-02
  8.807013e-01    2.330775e-03
  9.337054e-01    2.771727e-02
  9.867095e-01    8.681193e-03
  1.039714e+00    2.166145e-02
  1.092718e+00    1.267164e-02
  1.145722e+00    1.835568e-02
  1.198726e+00    4.141108e-02
  1.251730e+00    1.351565e-02
  1.304734e+00    2.295586e-02
  1.357738e+00    2.212047e-02
  1.410742e+00    8.988981e-03
  1.463746e+00    1.757539e-02
  1.516750e+00    2.223409e-02
  1.569755e+00    2.519275e-02
  1.622759e+00    3.419844e-02
  1.675763e+00    1.613467e-02
  1.728767e+00    7.844280e-03
  1.781771e+00    1.834826e-02
  1.834775e+00    1.800093e-02
  1.887779e+00    1.612425e-02
  1.940783e+00    1.460124e-02
  1.993787e+00    7.158986e-03
  2.046791e+00    6.917055e-03
  2.099796e+00    1.763098e-02
  2.152800e+00    1.733721e-02
  2.205804e+00    2.101647e-02
  2.258808e+00    1.029962e-02
  2.311812e+00    1.765233e-02
  2.364816e+00    9.956184e-03
  2.417820e+00    9.781534e-03
  2.470824e+00    9.613195e-03
  2.523828e+00    9.450817e-03
  2.576832e+00    6.970696e-03
  2.629837e+00    6.864959e-03
  2.682841e+00    1.128352e-02
  2.735845e+00    6.692705e-03
  2.788849e+00    1.415329e-02
  2.841853e+00    5.383859e-03
  2.894857e+00    1.176532e-02
  2.947861e+00    9.425057e-03
  3.000865e+00    8.248141e-03
  3.053869e+00    4.735844e-03
  3.106874e+00    1.059853e-02
  3.159878e+00    9.282081e-03
  3.212882e+00    8.218538e-03
  3.265886e+00    5.588697e-03
  3.318890e+00    5.344970e-03
  3.371894e+00    4.472921e-03
  3.424898e+00    6.321516e-03
  3.477902e+00    1.754669e-02
  3.530906e+00    1.901538e-02
  3.583910e+00    8.936279e-03
  3.636915e+00    6.163478e-03
  3.689919e+00    8.707196e-03
  3.742923e+00    9.366687e-03
  3.795927e+00    2.814995e-03
  3.848931e+00    7.333425e-03
  3.901935e+00    8.064246e-03
  3.954939e+00    8.079111e-03
  4.007943e+00    6.999682e-03
  4.060947e+00    1.286509e-02
  4.113951e+00    5.129904e-03
  4.166956e+00    1.360294e-02
  4.219960e+00    1.146374e-02
  4.272964e+00    9.023571e-03
  4.325968e+00    8.976113e-03
  4.378972e+00    1.028933e-02
  4.431976e+00    3.961225e-03
  4.484980e+00    9.319393e-03
  4.537984e+00    3.091387e-03
  4.590988e+00    6.139312e-03
  4.643992e+00    8.346836e-03
  4.696997e+00    1.269421e-02
  4.750001e+00    9.696849e-03
  4.803005e+00    7.296612e-03
  4.856009e+00    1.078490e-02
  4.909013e+00    7.885612e-03
  4.962017e+00    9.994207e-03
  5.015021e+00    5.629777e-03
  5.068025e+00    8.410141e-03
  5.121029e+00    9.595318e-03
  5.174033e+00    1.093668e-02
  5.227038e+00    6.104367e-03
  5.280042e+00    7.380643e-03
  5.333046e+00    9.975649e-03
  5.386050e+00    6.536189e-03
  5.439054e+00    7.849236e-03
  5.492058e+00    5.833487e-03
  5.545062e+00    6.458852e-03
  5.598066e+00    3.206472e-03
  5.651070e+00    3.750088e-03
  5.704074e+00    7.510064e-03
  5.757079e+00    7.424363e-03
  5.810083e+00    6.741209e-03
  5.863087e+00    3.663358e-03
  5.916091e+00    6.022226e-03
  5.969095e+00    1.150333e-02
  6.022099e+00    1.130417e-02
  6.075103e+00    1.122832e-02
  6.128107e+00    6.976482e-03
  6.181111e+00    5.806069e-03
  6.234115e+00    4.605256e-03
  6.287120e+00    5.731795e-03
  6.340124e+00    5.147245e-03
  6.393128e+00    6.187384e-03
  6.446132e+00    8.480039e-03
  6.499136e+00    6.567930e-03
  6.552140e+00    7.740058e-03
  6.605144e+00    6.565314e-03
  6.658148e+00    5.202548e-03
  6.711152e+00    6.913747e-03
  6.764156e+00    6.502315e-03
  6.817161e+00    3.293394e-03
  6.870165e+00    5.376333e-03
  6.923169e+00    7.281034e-03
  6.976173e+00    4.180734e-03
  7.029177e+00    5.181356e-03
  7.082181e+00    3.962298e-03
  7.135185e+00    8.817376e-03
  7.188189e+00    9.388063e-03
  7.241193e+00    4.917874e-03
  7.294197e+00    3.739464e-03
  7.347202e+00    4.232735e-03
  7.400206e+00    3.187698e-03
  7.453210e+00    7.270442e-03
  7.506214e+00    5.163635e-03
  7.559218e+00    8.152203e-03
  7.612222e+00    6.111887e-03
  7.665226e+00    1.009291e-02
  7.718230e+00    7.483541e-03
  7.771234e+00    8.800861e-03
  7.824239e+00    6.075189e-03
  7.877243e+00    7.230124e-03
  7.930247e+00    4.640269e-03
  7.983251e+00    7.515542e-03
  8.036255e+00    5.023889e-03
  8.089259e+00    6.932811e-03
  8.142263e+00    3.892982e-03
  8.195267e+00    5.801928e-03
  8.248271e+00    5.270030e-03
  8.301275e+00    5.255236e-03
  8.354280e+00    5.960415e-03
  8.407284e+00    7.351447e-03
  8.460288e+00    6.531345e-03
  8.513292e+00    5.556519e-03
  8.566296e+00    4.563567e-03
  8.619300e+00    4.550959e-03
  8.672304e+00    5.931314e-03
  8.725308e+00    7.175211e-03
  8.778312e+00    8.035988e-03
  8.831316e+00    5.327875e-03
  8.884321e+00    6.179459e-03
  8.937325e+00    3.955540e-03
  8.990329e+00    3.493722e-03
  9.043333e+00    4.322720e-03
  9.096337e+00    6.477089e-03
  9.149341e+00    4.285348e-03
  9.202345e+00    6.386497e-03
  9.255349e+00    3.410804e-03
  9.308353e+00    5.424196e-03
  9.361357e+00    5.881564e-03
  9.414362e+00    5.886497e-03
  9.467366e+00    5.353980e-03
  9.520370e+00    5.341929e-03
  9.573374e+00    5.401717e-03
  9.626378e+00    8.856282e-03
  9.679382e+00    4.897963e-03
  9.732386e+00    3.632416e-03
  9.785390e+00    4.008360e-03
  9.838394e+00    6.038246e-03
  9.891398e+00    5.125050e-03
  9.944403e+00    7.572215e-03
  9.997407e+00    1.256958e-02
  1.005041e+01    7.913554e-03
  1.010341e+01    3.875951e-03
  1.015642e+01    3.982304e-03
  1.020942e+01    4.991187e-03
  1.026243e+01    6.571005e-03
  1.031543e+01    5.495918e-03
  1.036844e+01    4.249326e-03
  1.042144e+01    7.054855e-03
  1.047444e+01    5.309320e-03
  1.052745e+01    4.077260e-03
  1.058045e+01    5.135168e-03
  1.063346e+01    6.376235e-03
  1.068646e+01    7.432544e-03
  1.073946e+01    4.294876e-03
  1.079247e+01    5.375210e-03
  1.084547e+01    3.853546e-03
  1.089848e+01    4.963274e-03
  1.095148e+01    5.319739e-03
  1.100448e+01    5.662152e-03
  1.105749e+01    6.006663e-03
  1.111049e+01    6.720694e-03
  1.116350e+01    4.812785e-03
  1.121650e+01    4.077669e-03
  1.126951e+01    4.026287e-03
  1.132251e+01    5.128447e-03
  1.137551e+01    1.089986e-03
  1.142852e+01    2.889223e-03
  1.148152e+01    8.256213e-03
  1.153453e+01    3.586811e-03
  1.158753e+01    3.569717e-03
  1.164053e+01    6.395030e-03
  1.169354e+01    3.581947e-03
  1.174654e+01    6.760804e-03
  1.179955e+01    3.888551e-03
  1.185255e+01    5.587049e-03
  1.190555e+01    6.689486e-03
  1.195856e+01    3.436551e-03
  1.201156e+01    8.624107e-03
  1.206457e+01    4.468426e-03
  1.211757e+01    4.090604e-03
  1.217057e+01    3.766654e-03
  1.222358e+01    3.725883e-03
  1.227658e+01    5.758013e-03
  1.232959e+01    6.384037e-03
  1.238259e+01    4.339253e-03
  1.243560e+01    3.310378e-03
  1.248860e+01    5.598675e-03
  1.254160e+01    7.614873e-03
  1.259461e+01    4.939162e-03
  1.264761e+01    5.240245e-03
  1.270062e+01    6.578968e-03
  1.275362e+01    4.238144e-03
  1.280662e+01    2.585216e-03
  1.285963e+01    6.512286e-03
  1.291263e+01    5.827914e-03
  1.296564e+01    7.021261e-03
  1.301864e+01    4.492902e-03
  1.307164e+01    7.361334e-03
  1.312465e+01    5.069387e-03
  1.317765e+01    5.132537e-03
  1.323066e+01    4.533316e-03
  1.328366e+01    4.282453e-03
  1.333667e+01    5.841376e-03
  1.338967e+01    5.582819e-03
  1.344267e+01    6.009814e-03
  1.349568e+01    4.064050e-03
  1.354868e+01    8.936593e-03
  1.360169e+01    5.925593e-03
  1.365469e+01    4.900496e-03
  1.370769e+01    7.794008e-03
  1.376070e+01    6.749006e-03
  1.381370e+01    5.091733e-03
  1.386671e+01    6.337115e-03
  1.391971e+01    6.640267e-03
  1.397271e+01    7.556117e-03
  1.402572e+01    7.498317e-03
  1.407872e+01    5.592711e-03
  1.413173e+01    7.142594e-03
  1.418473e+01    6.773842e-03
  1.423773e+01    8.329205e-03
  1.429074e+01    5.846307e-03
  1.434374e+01    4.889939e-03
  1.439675e+01    8.760962e-03
  1.444975e+01    8.152368e-03
  1.450276e+01    6.930360e-03
  1.455576e+01    5.385405e-03
  1.460876e+01    3.297934e-03
  1.466177e+01    5.335341e-03
  1.471477e+01    4.162947e-03
  1.476778e+01    4.728794e-03
  1.482078e+01    8.811858e-03
  1.487378e+01    7.294645e-03
  1.492679e+01    3.790737e-03
  1.497979e+01    8.087056e-03
  1.503280e+01    4.645597e-03
  1.508580e+01    5.226022e-03
  1.513880e+01    6.183096e-03
  1.519181e+01    8.642720e-03
  1.524481e+01    6.730016e-03
  1.529782e+01    4.175877e-03
  1.535082e+01    7.006148e-03
  1.540382e+01    5.484388e-03
  1.545683e+01    7.488100e-03
  1.550983e+01    5.193929e-03
  1.556284e+01    5.748090e-03
  1.561584e+01    5.452624e-03
  1.566885e+01    6.556965e-03
  1.572185e+01    7.672464e-03
  1.577485e+01    9.866727e-03
  1.582786e+01    8.164650e-03
  1.588086e+01    9.255567e-03
  1.593387e+01    5.599579e-03
  1.598687e+01    9.100180e-03
  1.603987e+01    5.190253e-03
  1.609288e+01    4.700377e-03
  1.614588e+01    6.353207e-03
  1.619889e+01    6.944771e-03
  1.625189e+01    6.330154e-03
  1.630489e+01    8.255078e-03
  1.635790e+01    8.448837e-03
  1.641090e+01    5.754579e-03
  1.646391e+01    8.308019e-03
  1.651691e+01    6.258158e-03
  1.656992e+01    7.377383e-03
  1.662292e+01    6.184920e-03
  1.667592e+01    7.810912e-03
  1.672893e+01    8.114775e-03
  1.678193e+01    8.876383e-03
  1.683494e+01    7.139355e-03
  1.688794e+01    9.691624e-03
  1.694094e+01    8.480588e-03
  1.699395e+01    7.654678e-03
  1.704695e+01    4.898141e-03
  1.709996e+01    7.331826e-03
  1.715296e+01    6.759025e-03
  1.720596e+01    7.832283e-03
  1.725897e+01    6.906559e-03
  1.731197e+01    6.930755e-03
  1.736498e+01    8.955418e-03
  1.741798e+01    6.414372e-03
  1.747098e+01    8.484729e-03
  1.752399e+01    5.850415e-03
  1.757699e+01    7.378738e-03
  1.763000e+01    6.594626e-03
  1.768300e+01    9.226350e-03
  1.773601e+01    8.355385e-03
  1.778901e+01    8.085802e-03
  1.784201e+01    6.795336e-03
  1.789502e+01    8.040746e-03
  1.794802e+01    1.245718e-02
  1.800103e+01    9.055873e-03
  1.805403e+01    9.802585e-03
  1.810703e+01    8.746653e-03
  1.816004e+01    1.106317e-02
  1.821304e+01    7.754657e-03
  1.826605e+01    7.171809e-03
  1.831905e+01    1.050005e-02
  1.837205e+01    9.441319e-03
  1.842506e+01    6.874284e-03
  1.847806e+01    9.581530e-03
  1.853107e+01    9.157198e-03
  1.858407e+01    9.131143e-03
  1.863708e+01    5.846885e-03
  1.869008e+01    1.056701e-02
  1.874308e+01    8.082364e-03
  1.879609e+01    1.107928e-02
  1.884909e+01    7.347080e-03
  1.890210e+01    9.935502e-03
  1.895510e+01    1.067818e-02
  1.900810e+01    6.721436e-03
  1.906111e+01    1.546194e-02
  1.911411e+01    1.049975e-02
  1.916712e+01    8.931706e-03
  1.922012e+01    1.069069e-02
  1.927312e+01    7.609202e-03
  1.932613e+01    9.346291e-03
  1.937913e+01    7.539805e-03
  1.943214e+01    9.747979e-03
  1.948514e+01    6.977814e-03
  1.953814e+01    9.969465e-03
  1.959115e+01    9.720114e-03
  1.964415e+01    7.687737e-03
  1.969716e+01    7.936800e-03
  1.975016e+01    6.923546e-03
  1.980317e+01    8.368280e-03
  1.985617e+01    1.056709e-02
  1.990917e+01    1.135128e-02
  1.996218e+01    1.400697e-02
  2.001518e+01    1.071579e-02
  2.006819e+01    1.292242e-02
  2.012119e+01    9.512386e-03
  2.017419e+01    9.422439e-03
  2.022720e+01    1.015264e-02
  2.028020e+01    1.036590e-02
  2.033321e+01    8.879778e-03
  2.038621e+01    9.599484e-03
  2.043921e+01    1.151406e-02
  2.049222e+01    8.864906e-03
  2.054522e+01    1.173272e-02
  2.059823e+01    1.116962e-02
  2.065123e+01    1.301087e-02
  2.070424e+01    1.316451e-02
  2.075724e+01    1.196611e-02
  2.081024e+01    1.176327e-02
  2.086325e+01    7.960776e-03
  2.091625e+01    1.447799e-02
  2.096926e+01    1.771786e-02
  2.102226e+01    1.291219e-02
  2.107526e+01    1.080210e-02
  2.112827e+01    1.188159e-02
  2.118127e+01    1.170063e-02
  2.123428e+01    1.318538e-02
  2.128728e+01    8.656131e-03
  2.134028e+01    8.938106e-03
  2.139329e+01    1.094778e-02
  2.144629e+01    1.357740e-02
  2.149930e+01    1.104734e-02
  2.155230e+01    1.196879e-02
  2.160530e+01    1.114773e-02
  2.165831e+01    1.579181e-02
  2.171131e+01    1.531005e-02
  2.176432e+01    1.501294e-02
  2.181732e+01    1.360568e-02
  2.187033e+01    1.279908e-02
  2.192333e+01    1.420035e-02
  2.197633e+01    1.312251e-02
  2.202934e+01    1.371655e-02
  2.208234e+01    1.612924e-02
  2.213535e+01    1.296778e-02
  2.218835e+01    1.301910e-02
  2.224135e+01    1.449997e-02
  2.229436e+01    1.306942e-02
  2.234736e+01    1.665447e-02
  2.240037e+01    1.346147e-02
  2.245337e+01    1.381942e-02
  2.250637e+01    1.503512e-02
  2.255938e+01    1.631346e-02
  2.261238e+01    1.511722e-02
  2.266539e+01    1.333032e-02
  2.271839e+01    1.454472e-02
  2.277140e+01    1.695533e-02
  2.282440e+01    1.593004e-02
  2.287740e+01    1.356849e-02
  2.293041e+01    1.526717e-02
  2.298341e+01    1.701910e-02
  2.303642e+01    1.394197e-02
  2.308942e+01    1.651736e-02
  2.314242e+01    1.603284e-02
  2.319543e+01    1.403928e-02
  2.324843e+01    1.776220e-02
  2.330144e+01    1.266790e-02
  2.335444e+01    1.152562e-02
  2.340744e+01    1.185490e-02
  2.346045e+01    1.383452e-02
  2.351345e+01    1.594839e-02
  2.356646e+01    1.866449e-02
  2.361946e+01    1.306556e-02
  2.367246e+01    1.998809e-02
  2.372547e+01    1.676964e-02
  2.377847e+01    2.547827e-02
  2.383148e+01    1.830552e-02
  2.388448e+01    1.485030e-02
  2.393749e+01    1.455181e-02
  2.399049e+01    1.850706e-02
  2.404349e+01    7.327270e-03
  2.409650e+01    1.806930e-02
  2.414950e+01    1.711014e-02
  2.420251e+01    2.237849e-02
  2.425551e+01    1.978691e-02
  2.430851e+01    1.532910e-02
  2.436152e+01    2.109166e-02
  2.441452e+01    1.263827e-02
  2.446753e+01    1.493570e-02
  2.452053e+01    1.257128e-02
  2.457353e+01    2.079204e-02
  2.462654e+01    1.182657e-02
  2.467954e+01    2.048468e-02
  2.473255e+01    1.691738e-02
  2.478555e+01    1.431856e-02
  2.483855e+01    2.506291e-02
  2.489156e+01    2.015792e-02
  2.494456e+01    2.592943e-02
  2.499757e+01    1.023393e-02
  2.505057e+01    1.873340e-02
  2.510358e+01    1.537912e-02
  2.515658e+01    2.050936e-02
  2.520958e+01    2.001334e-02
  2.526259e+01    1.444654e-02
  2.531559e+01    2.880580e-02
  2.536860e+01    1.969703e-02
  2.542160e+01    1.879659e-02
  2.547460e+01    2.398453e-02
  2.552761e+01    1.703256e-02
  2.558061e+01    1.285655e-02
  2.563362e+01    2.927889e-02
  2.568662e+01    2.609345e-02
  2.573962e+01    2.556750e-02
  2.579263e+01    3.602331e-02
  2.584563e+01    2.104330e-02
  2.589864e+01    2.629256e-02
  2.595164e+01    2.889880e-02
  2.600465e+01    1.214068e-02
  2.605765e+01    2.274770e-02
  2.611065e+01    1.547868e-02
  2.616366e+01    2.418927e-02
  2.621666e+01    7.239880e-03
  2.626967e+01    9.097268e-03
  2.632267e+01    1.178910e-02
  2.637567e+01    0.000000e+00
  2.642868e+01    0.000000e+00
  2.648168e+01    0.000000e+00
