# == pyFAI calibration ==
# Distance Sample to Detector: 0.2946421923531691 m
# PONI: 2.875e-01, 2.439e-01 m
# Rotations: -0.010990 -0.009181 0.000003 rad
# 
# == Fit2d calibration ==
# Distance Sample-beamCenter: 294.672 mm
# Center: x=1436.809, y=1655.851 pix
# Tilt: 0.820 deg  TiltPlanRot: -39.874 deg
# 
# Detector Pilatus 2M	 PixelSize= 1.720e-04, 1.720e-04 m
#    Detector has a mask: True 
#    Detector has a dark current: False 
#    detector has a flat field: False 
# 
# Wavelength: 2.0732883349524408e-11 m
# Mask applied: from detector
# Dark current applied: False
# Flat field applied: False
# Polarization factor: None
# Normalization factor: 1.0
# --> /gpfs/current/raw/FMue_3/FMue_3_20231024_175355_00145.dat
#        q_A^-1             I 
  3.483473e-02             nan
  8.795289e-02             nan
  1.410711e-01             nan
  1.941892e-01             nan
  2.473074e-01             nan
  3.004255e-01             nan
  3.535437e-01             nan
  4.066619e-01    1.230435e+04
  4.597800e-01    1.131627e+04
  5.128982e-01    9.584397e+03
  5.660163e-01    8.654697e+03
  6.191345e-01    8.296494e+03
  6.722527e-01    8.154527e+03
  7.253708e-01    8.177200e+03
  7.784890e-01    8.202474e+03
  8.316071e-01    8.353374e+03
  8.847253e-01    8.464923e+03
  9.378435e-01    8.660629e+03
  9.909616e-01    8.863077e+03
  1.044080e+00    9.145366e+03
  1.097198e+00    9.494287e+03
  1.150316e+00    1.004911e+04
  1.203434e+00    1.074044e+04
  1.256552e+00    1.162347e+04
  1.309671e+00    1.274845e+04
  1.362789e+00    1.381649e+04
  1.415907e+00    1.429574e+04
  1.469025e+00    1.438784e+04
  1.522143e+00    1.424340e+04
  1.575261e+00    1.365463e+04
  1.628380e+00    1.290877e+04
  1.681498e+00    1.198239e+04
  1.734616e+00    1.102163e+04
  1.787734e+00    1.020630e+04
  1.840852e+00    9.505315e+03
  1.893970e+00    8.926462e+03
  1.947089e+00    8.566064e+03
  2.000207e+00    8.279805e+03
  2.053325e+00    8.134670e+03
  2.106443e+00    8.467696e+03
  2.159561e+00    9.182592e+03
  2.212679e+00    9.468511e+03
  2.265797e+00    9.289957e+03
  2.318916e+00    8.647505e+03
  2.372034e+00    7.958622e+03
  2.425152e+00    8.221639e+03
  2.478270e+00    9.510549e+03
  2.531388e+00    1.205800e+04
  2.584506e+00    1.307773e+04
  2.637625e+00    1.077028e+04
  2.690743e+00    8.739148e+03
  2.743861e+00    7.819511e+03
  2.796979e+00    6.506358e+03
  2.850097e+00    5.593217e+03
  2.903215e+00    5.284572e+03
  2.956334e+00    5.226458e+03
  3.009452e+00    5.561566e+03
  3.062570e+00    6.913660e+03
  3.115688e+00    9.226038e+03
  3.168806e+00    9.177245e+03
  3.221924e+00    7.409721e+03
  3.275043e+00    5.848239e+03
  3.328161e+00    4.978833e+03
  3.381279e+00    4.757111e+03
  3.434397e+00    4.752204e+03
  3.487515e+00    4.801804e+03
  3.540633e+00    4.712087e+03
  3.593751e+00    4.622261e+03
  3.646870e+00    4.679414e+03
  3.699988e+00    4.823223e+03
  3.753106e+00    5.049915e+03
  3.806224e+00    5.263385e+03
  3.859342e+00    5.390051e+03
  3.912460e+00    5.651175e+03
  3.965579e+00    6.274071e+03
  4.018697e+00    7.022540e+03
  4.071815e+00    7.258175e+03
  4.124933e+00    6.867012e+03
  4.178051e+00    6.449785e+03
  4.231169e+00    6.286521e+03
  4.284288e+00    6.613417e+03
  4.337406e+00    7.940343e+03
  4.390524e+00    9.952670e+03
  4.443642e+00    1.197818e+04
  4.496760e+00    1.240615e+04
  4.549878e+00    8.726881e+03
  4.602997e+00    5.979807e+03
  4.656115e+00    5.313448e+03
  4.709233e+00    5.098373e+03
  4.762351e+00    5.047198e+03
  4.815469e+00    5.075456e+03
  4.868587e+00    5.165192e+03
  4.921705e+00    5.238674e+03
  4.974824e+00    5.339935e+03
  5.027942e+00    5.438836e+03
  5.081060e+00    5.569618e+03
  5.134178e+00    5.451575e+03
  5.187296e+00    5.102171e+03
  5.240414e+00    4.733027e+03
  5.293533e+00    4.503204e+03
  5.346651e+00    4.385416e+03
  5.399769e+00    4.316607e+03
  5.452887e+00    4.304197e+03
  5.506005e+00    4.184857e+03
  5.559123e+00    3.829372e+03
  5.612242e+00    3.637506e+03
  5.665360e+00    3.584685e+03
  5.718478e+00    3.551915e+03
  5.771596e+00    3.567421e+03
  5.824714e+00    3.654912e+03
  5.877832e+00    3.810889e+03
  5.930951e+00    4.010084e+03
  5.984069e+00    4.094116e+03
  6.037187e+00    3.978365e+03
  6.090305e+00    3.810344e+03
  6.143423e+00    3.737198e+03
  6.196541e+00    3.853826e+03
  6.249660e+00    4.008827e+03
  6.302778e+00    3.912837e+03
  6.355896e+00    3.643379e+03
  6.409014e+00    3.536254e+03
  6.462132e+00    3.470958e+03
  6.515250e+00    3.418078e+03
  6.568368e+00    3.434016e+03
  6.621487e+00    3.487819e+03
  6.674605e+00    3.569525e+03
  6.727723e+00    3.621156e+03
  6.780841e+00    3.531525e+03
  6.833959e+00    3.376377e+03
  6.887077e+00    3.267275e+03
  6.940196e+00    3.227789e+03
  6.993314e+00    3.265456e+03
  7.046432e+00    3.271104e+03
  7.099550e+00    3.194863e+03
  7.152668e+00    3.127101e+03
  7.205786e+00    3.076635e+03
  7.258905e+00    3.052177e+03
  7.312023e+00    3.099655e+03
  7.365141e+00    3.184969e+03
  7.418259e+00    3.245266e+03
  7.471377e+00    3.261858e+03
  7.524495e+00    3.311162e+03
  7.577614e+00    3.421837e+03
  7.630732e+00    3.492011e+03
  7.683850e+00    3.559848e+03
  7.736968e+00    3.640563e+03
  7.790086e+00    3.538122e+03
  7.843204e+00    3.350669e+03
  7.896322e+00    3.204314e+03
  7.949441e+00    3.144533e+03
  8.002559e+00    3.143754e+03
  8.055677e+00    3.124089e+03
  8.108795e+00    3.076479e+03
  8.161913e+00    3.034993e+03
  8.215031e+00    2.986305e+03
  8.268150e+00    2.932752e+03
  8.321268e+00    2.893651e+03
  8.374386e+00    2.870671e+03
  8.427504e+00    2.852642e+03
  8.480622e+00    2.837100e+03
  8.533740e+00    2.793125e+03
  8.586859e+00    2.823308e+03
  8.639977e+00    2.818780e+03
  8.693095e+00    2.806060e+03
  8.746213e+00    2.810142e+03
  8.799331e+00    2.803467e+03
  8.852449e+00    2.789236e+03
  8.905568e+00    2.794079e+03
  8.958686e+00    2.794912e+03
  9.011804e+00    2.787162e+03
  9.064922e+00    2.735970e+03
  9.118040e+00    2.697213e+03
  9.171158e+00    2.681088e+03
  9.224276e+00    2.652754e+03
  9.277395e+00    2.606456e+03
  9.330513e+00    2.577494e+03
  9.383631e+00    2.554130e+03
  9.436749e+00    2.540232e+03
  9.489867e+00    2.548437e+03
  9.542985e+00    2.552371e+03
  9.596104e+00    2.543737e+03
  9.649222e+00    2.552277e+03
  9.702340e+00    2.550998e+03
  9.755458e+00    2.536365e+03
  9.808576e+00    2.529750e+03
  9.861694e+00    2.536502e+03
  9.914813e+00    2.527667e+03
  9.967931e+00    2.505899e+03
  1.002105e+01    2.471611e+03
  1.007417e+01    2.442234e+03
  1.012729e+01    2.419948e+03
  1.018040e+01    2.409186e+03
  1.023352e+01    2.382663e+03
  1.028664e+01    2.347643e+03
  1.033976e+01    2.331672e+03
  1.039288e+01    2.349634e+03
  1.044599e+01    2.338282e+03
  1.049911e+01    2.336413e+03
  1.055223e+01    2.325463e+03
  1.060535e+01    2.327149e+03
  1.065847e+01    2.316008e+03
  1.071158e+01    2.308883e+03
  1.076470e+01    2.299535e+03
  1.081782e+01    2.299023e+03
  1.087094e+01    2.287691e+03
  1.092406e+01    2.297116e+03
  1.097718e+01    2.301302e+03
  1.103029e+01    2.297851e+03
  1.108341e+01    2.293523e+03
  1.113653e+01    2.277481e+03
  1.118965e+01    2.257602e+03
  1.124277e+01    2.244114e+03
  1.129588e+01    2.239615e+03
  1.134900e+01    2.230141e+03
  1.140212e+01    2.235053e+03
  1.145524e+01    2.237271e+03
  1.150836e+01    2.242598e+03
  1.156148e+01    2.238484e+03
  1.161459e+01    2.244408e+03
  1.166771e+01    2.232023e+03
  1.172083e+01    2.235782e+03
  1.177395e+01    2.216812e+03
  1.182707e+01    2.205301e+03
  1.188018e+01    2.207850e+03
  1.193330e+01    2.193425e+03
  1.198642e+01    2.173317e+03
  1.203954e+01    2.154092e+03
  1.209266e+01    2.147071e+03
  1.214578e+01    2.139194e+03
  1.219889e+01    2.142899e+03
  1.225201e+01    2.142903e+03
  1.230513e+01    2.139407e+03
  1.235825e+01    2.139198e+03
  1.241137e+01    2.123398e+03
  1.246448e+01    2.121555e+03
  1.251760e+01    2.115452e+03
  1.257072e+01    2.110971e+03
  1.262384e+01    2.115910e+03
  1.267696e+01    2.102626e+03
  1.273008e+01    2.088676e+03
  1.278319e+01    2.078657e+03
  1.283631e+01    2.067831e+03
  1.288943e+01    2.064538e+03
  1.294255e+01    2.050336e+03
  1.299567e+01    2.047377e+03
  1.304878e+01    2.039389e+03
  1.310190e+01    2.037018e+03
  1.315502e+01    2.033967e+03
  1.320814e+01    2.011930e+03
  1.326126e+01    1.988693e+03
  1.331437e+01    1.978656e+03
  1.336749e+01    1.971952e+03
  1.342061e+01    1.961367e+03
  1.347373e+01    1.984743e+03
  1.352685e+01    1.984986e+03
  1.357997e+01    1.971178e+03
  1.363308e+01    1.959528e+03
  1.368620e+01    1.952302e+03
  1.373932e+01    1.944131e+03
  1.379244e+01    1.939554e+03
  1.384556e+01    1.931356e+03
  1.389867e+01    1.923033e+03
  1.395179e+01    1.915024e+03
  1.400491e+01    1.911936e+03
  1.405803e+01    1.908312e+03
  1.411115e+01    1.901691e+03
  1.416427e+01    1.892401e+03
  1.421738e+01    1.888506e+03
  1.427050e+01    1.879192e+03
  1.432362e+01    1.881047e+03
  1.437674e+01    1.876167e+03
  1.442986e+01    1.866104e+03
  1.448297e+01    1.859417e+03
  1.453609e+01    1.853268e+03
  1.458921e+01    1.844702e+03
  1.464233e+01    1.839076e+03
  1.469545e+01    1.832533e+03
  1.474857e+01    1.812955e+03
  1.480168e+01    1.823451e+03
  1.485480e+01    1.820174e+03
  1.490792e+01    1.815235e+03
  1.496104e+01    1.808104e+03
  1.501416e+01    1.805191e+03
  1.506727e+01    1.802683e+03
  1.512039e+01    1.799273e+03
  1.517351e+01    1.812039e+03
  1.522663e+01    1.824530e+03
  1.527975e+01    1.820696e+03
  1.533286e+01    1.806527e+03
  1.538598e+01    1.796287e+03
  1.543910e+01    1.790486e+03
  1.549222e+01    1.785068e+03
  1.554534e+01    1.785624e+03
  1.559846e+01    1.782108e+03
  1.565157e+01    1.775141e+03
  1.570469e+01    1.768396e+03
  1.575781e+01    1.767417e+03
  1.581093e+01    1.763586e+03
  1.586405e+01    1.760508e+03
  1.591716e+01    1.754725e+03
  1.597028e+01    1.748680e+03
  1.602340e+01    1.734378e+03
  1.607652e+01    1.722359e+03
  1.612964e+01    1.699972e+03
  1.618276e+01    1.688298e+03
  1.623587e+01    1.690048e+03
  1.628899e+01    1.706220e+03
  1.634211e+01    1.703543e+03
  1.639523e+01    1.698565e+03
  1.644835e+01    1.701508e+03
  1.650146e+01    1.694698e+03
  1.655458e+01    1.692159e+03
  1.660770e+01    1.689573e+03
  1.666082e+01    1.683932e+03
  1.671394e+01    1.682406e+03
  1.676706e+01    1.678164e+03
  1.682017e+01    1.691745e+03
  1.687329e+01    1.681071e+03
  1.692641e+01    1.673732e+03
  1.697953e+01    1.670198e+03
  1.703265e+01    1.665510e+03
  1.708576e+01    1.663912e+03
  1.713888e+01    1.656556e+03
  1.719200e+01    1.655390e+03
  1.724512e+01    1.647509e+03
  1.729824e+01    1.646410e+03
  1.735136e+01    1.640206e+03
  1.740447e+01    1.619089e+03
  1.745759e+01    1.626215e+03
  1.751071e+01    1.629498e+03
  1.756383e+01    1.637779e+03
  1.761695e+01    1.622997e+03
  1.767006e+01    1.620535e+03
  1.772318e+01    1.611305e+03
  1.777630e+01    1.611026e+03
  1.782942e+01    1.602859e+03
  1.788254e+01    1.597716e+03
  1.793565e+01    1.594362e+03
  1.798877e+01    1.592385e+03
  1.804189e+01    1.586919e+03
  1.809501e+01    1.582441e+03
  1.814813e+01    1.580632e+03
  1.820125e+01    1.573778e+03
  1.825436e+01    1.579280e+03
  1.830748e+01    1.572709e+03
  1.836060e+01    1.568254e+03
  1.841372e+01    1.566688e+03
  1.846684e+01    1.561821e+03
  1.851995e+01    1.540739e+03
  1.857307e+01    1.526111e+03
  1.862619e+01    1.517151e+03
  1.867931e+01    1.513633e+03
  1.873243e+01    1.535019e+03
  1.878555e+01    1.535371e+03
  1.883866e+01    1.532695e+03
  1.889178e+01    1.532491e+03
  1.894490e+01    1.545474e+03
  1.899802e+01    1.533988e+03
  1.905114e+01    1.530439e+03
  1.910425e+01    1.525249e+03
  1.915737e+01    1.520998e+03
  1.921049e+01    1.517274e+03
  1.926361e+01    1.512782e+03
  1.931673e+01    1.509644e+03
  1.936985e+01    1.508211e+03
  1.942296e+01    1.505554e+03
  1.947608e+01    1.505070e+03
  1.952920e+01    1.502061e+03
  1.958232e+01    1.501177e+03
  1.963544e+01    1.506865e+03
  1.968855e+01    1.492554e+03
  1.974167e+01    1.480675e+03
  1.979479e+01    1.486465e+03
  1.984791e+01    1.484706e+03
  1.990103e+01    1.482320e+03
  1.995414e+01    1.480866e+03
  2.000726e+01    1.478525e+03
  2.006038e+01    1.473567e+03
  2.011350e+01    1.469815e+03
  2.016662e+01    1.463044e+03
  2.021974e+01    1.467173e+03
  2.027285e+01    1.473116e+03
  2.032597e+01    1.457829e+03
  2.037909e+01    1.453280e+03
  2.043221e+01    1.448587e+03
  2.048533e+01    1.446734e+03
  2.053844e+01    1.445713e+03
  2.059156e+01    1.441222e+03
  2.064468e+01    1.437717e+03
  2.069780e+01    1.418589e+03
  2.075092e+01    1.394990e+03
  2.080404e+01    1.380442e+03
  2.085715e+01    1.400213e+03
  2.091027e+01    1.424896e+03
  2.096339e+01    1.431030e+03
  2.101651e+01    1.437648e+03
  2.106963e+01    1.442552e+03
  2.112274e+01    1.444652e+03
  2.117586e+01    1.444084e+03
  2.122898e+01    1.448818e+03
  2.128210e+01    1.446033e+03
  2.133522e+01    1.445818e+03
  2.138834e+01    1.443600e+03
  2.144145e+01    1.443781e+03
  2.149457e+01    1.445170e+03
  2.154769e+01    1.443453e+03
  2.160081e+01    1.443704e+03
  2.165393e+01    1.444716e+03
  2.170704e+01    1.444299e+03
  2.176016e+01    1.433065e+03
  2.181328e+01    1.442425e+03
  2.186640e+01    1.442871e+03
  2.191952e+01    1.441974e+03
  2.197263e+01    1.439655e+03
  2.202575e+01    1.438996e+03
  2.207887e+01    1.437250e+03
  2.213199e+01    1.435182e+03
  2.218511e+01    1.435657e+03
  2.223823e+01    1.435651e+03
  2.229134e+01    1.432111e+03
  2.234446e+01    1.431517e+03
  2.239758e+01    1.430745e+03
  2.245070e+01    1.428857e+03
  2.250382e+01    1.429956e+03
  2.255693e+01    1.426414e+03
  2.261005e+01    1.408645e+03
  2.266317e+01    1.394873e+03
  2.271629e+01    1.386854e+03
  2.276941e+01    1.376449e+03
  2.282253e+01    1.370352e+03
  2.287564e+01    1.367219e+03
  2.292876e+01    1.362807e+03
  2.298188e+01    1.359430e+03
  2.303500e+01    1.357639e+03
  2.308812e+01    1.354658e+03
  2.314123e+01    1.353240e+03
  2.319435e+01    1.347834e+03
  2.324747e+01    1.340747e+03
  2.330059e+01    1.336932e+03
  2.335371e+01    1.335706e+03
  2.340683e+01    1.331219e+03
  2.345994e+01    1.328143e+03
  2.351306e+01    1.324069e+03
  2.356618e+01    1.320238e+03
  2.361930e+01    1.314799e+03
  2.367242e+01    1.308702e+03
  2.372553e+01    1.305010e+03
  2.377865e+01    1.298815e+03
  2.383177e+01    1.293255e+03
  2.388489e+01    1.289104e+03
  2.393801e+01    1.284416e+03
  2.399113e+01    1.283653e+03
  2.404424e+01    1.282565e+03
  2.409736e+01    1.282245e+03
  2.415048e+01    1.278384e+03
  2.420360e+01    1.275679e+03
  2.425672e+01    1.272418e+03
  2.430983e+01    1.269247e+03
  2.436295e+01    1.266285e+03
  2.441607e+01    1.266169e+03
  2.446919e+01    1.262524e+03
  2.452231e+01    1.263597e+03
  2.457542e+01    1.258535e+03
  2.462854e+01    1.254820e+03
  2.468166e+01    1.256259e+03
  2.473478e+01    1.249934e+03
  2.478790e+01    1.245030e+03
  2.484102e+01    1.240588e+03
  2.489413e+01    1.234564e+03
  2.494725e+01    1.234295e+03
  2.500037e+01    1.226765e+03
  2.505349e+01    1.221399e+03
  2.510661e+01    1.218875e+03
  2.515972e+01    1.216998e+03
  2.521284e+01    1.214691e+03
  2.526596e+01    1.213171e+03
  2.531908e+01    1.208419e+03
  2.537220e+01    1.208974e+03
  2.542532e+01    1.202766e+03
  2.547843e+01    1.204334e+03
  2.553155e+01    1.198011e+03
  2.558467e+01    1.192434e+03
  2.563779e+01    1.186126e+03
  2.569091e+01    1.178104e+03
  2.574402e+01    1.169548e+03
  2.579714e+01    1.165107e+03
  2.585026e+01    1.157461e+03
  2.590338e+01    1.151411e+03
  2.595650e+01    1.146574e+03
  2.600962e+01    1.146356e+03
  2.606273e+01    1.146990e+03
  2.611585e+01    1.144393e+03
  2.616897e+01    1.141561e+03
  2.622209e+01    1.147551e+03
  2.627521e+01    1.136746e+03
  2.632832e+01    1.127469e+03
  2.638144e+01    1.131167e+03
  2.643456e+01    1.122680e+03
  2.648768e+01    1.106961e+03
  2.654080e+01    1.086957e+03
