# == pyFAI calibration ==
# Distance Sample to Detector: 0.2946421923531691 m
# PONI: 2.875e-01, 2.439e-01 m
# Rotations: -0.010990 -0.009181 0.000003 rad
# 
# == Fit2d calibration ==
# Distance Sample-beamCenter: 294.672 mm
# Center: x=1436.809, y=1655.851 pix
# Tilt: 0.820 deg  TiltPlanRot: -39.874 deg
# 
# Detector Pilatus 2M	 PixelSize= 1.720e-04, 1.720e-04 m
#    Detector has a mask: True 
#    Detector has a dark current: False 
#    detector has a flat field: False 
# 
# Wavelength: 2.0732883349524408e-11 m
# Mask applied: from detector
# Dark current applied: False
# Flat field applied: False
# Polarization factor: None
# Normalization factor: 1.0
# --> /gpfs/current/raw/FMue_3/FMue_3_20231024_175355_00027.dat
#        q_A^-1             I 
  3.483473e-02             nan
  8.795289e-02             nan
  1.410711e-01             nan
  1.941892e-01             nan
  2.473074e-01             nan
  3.004255e-01             nan
  3.535437e-01             nan
  4.066619e-01    9.717650e+03
  4.597800e-01    9.257086e+03
  5.128982e-01    8.312429e+03
  5.660163e-01    7.936498e+03
  6.191345e-01    7.928001e+03
  6.722527e-01    8.042629e+03
  7.253708e-01    8.374723e+03
  7.784890e-01    1.371131e+04
  8.316071e-01    2.729287e+04
  8.847253e-01    1.640639e+04
  9.378435e-01    9.351050e+03
  9.909616e-01    9.944574e+03
  1.044080e+00    1.011614e+04
  1.097198e+00    9.877407e+03
  1.150316e+00    1.025958e+04
  1.203434e+00    1.096204e+04
  1.256552e+00    1.196857e+04
  1.309671e+00    1.284849e+04
  1.362789e+00    1.372983e+04
  1.415907e+00    1.440929e+04
  1.469025e+00    1.464957e+04
  1.522143e+00    1.457290e+04
  1.575261e+00    1.411175e+04
  1.628380e+00    1.613560e+04
  1.681498e+00    1.775383e+04
  1.734616e+00    1.245990e+04
  1.787734e+00    1.050599e+04
  1.840852e+00    9.743947e+03
  1.893970e+00    9.207331e+03
  1.947089e+00    9.114376e+03
  2.000207e+00    8.748054e+03
  2.053325e+00    8.036312e+03
  2.106443e+00    7.800777e+03
  2.159561e+00    7.930556e+03
  2.212679e+00    8.105375e+03
  2.265797e+00    8.323585e+03
  2.318916e+00    8.199037e+03
  2.372034e+00    8.833929e+03
  2.425152e+00    1.333520e+04
  2.478270e+00    9.346459e+03
  2.531388e+00    8.079364e+03
  2.584506e+00    8.879277e+03
  2.637625e+00    8.727647e+03
  2.690743e+00    9.191180e+03
  2.743861e+00    1.252120e+04
  2.796979e+00    8.153397e+03
  2.850097e+00    5.832478e+03
  2.903215e+00    5.409349e+03
  2.956334e+00    5.236221e+03
  3.009452e+00    5.355900e+03
  3.062570e+00    6.193088e+03
  3.115688e+00    7.830569e+03
  3.168806e+00    8.828297e+03
  3.221924e+00    1.063829e+04
  3.275043e+00    9.752021e+03
  3.328161e+00    6.193711e+03
  3.381279e+00    5.945399e+03
  3.434397e+00    5.337402e+03
  3.487515e+00    5.044965e+03
  3.540633e+00    4.977867e+03
  3.593751e+00    5.110557e+03
  3.646870e+00    6.238578e+03
  3.699988e+00    5.504515e+03
  3.753106e+00    4.937513e+03
  3.806224e+00    5.123774e+03
  3.859342e+00    5.892619e+03
  3.912460e+00    5.562336e+03
  3.965579e+00    5.144485e+03
  4.018697e+00    5.468075e+03
  4.071815e+00    7.443519e+03
  4.124933e+00    8.035245e+03
  4.178051e+00    8.658665e+03
  4.231169e+00    6.809949e+03
  4.284288e+00    6.443508e+03
  4.337406e+00    7.251347e+03
  4.390524e+00    7.854343e+03
  4.443642e+00    1.023436e+04
  4.496760e+00    1.190373e+04
  4.549878e+00    9.510611e+03
  4.602997e+00    6.185785e+03
  4.656115e+00    5.208725e+03
  4.709233e+00    5.344309e+03
  4.762351e+00    6.022760e+03
  4.815469e+00    5.700452e+03
  4.868587e+00    5.334324e+03
  4.921705e+00    5.768719e+03
  4.974824e+00    5.646135e+03
  5.027942e+00    5.842561e+03
  5.081060e+00    5.676075e+03
  5.134178e+00    5.211957e+03
  5.187296e+00    5.123903e+03
  5.240414e+00    5.294310e+03
  5.293533e+00    4.912931e+03
  5.346651e+00    4.504701e+03
  5.399769e+00    4.305034e+03
  5.452887e+00    4.427539e+03
  5.506005e+00    4.591034e+03
  5.559123e+00    4.084074e+03
  5.612242e+00    3.933339e+03
  5.665360e+00    3.834183e+03
  5.718478e+00    3.553754e+03
  5.771596e+00    3.571251e+03
  5.824714e+00    3.691313e+03
  5.877832e+00    3.645933e+03
  5.930951e+00    3.725239e+03
  5.984069e+00    3.846897e+03
  6.037187e+00    3.768634e+03
  6.090305e+00    3.773810e+03
  6.143423e+00    3.721939e+03
  6.196541e+00    3.716101e+03
  6.249660e+00    4.226873e+03
  6.302778e+00    4.326260e+03
  6.355896e+00    3.985613e+03
  6.409014e+00    4.135920e+03
  6.462132e+00    4.008987e+03
  6.515250e+00    3.855483e+03
  6.568368e+00    3.675840e+03
  6.621487e+00    3.706419e+03
  6.674605e+00    3.640338e+03
  6.727723e+00    3.444147e+03
  6.780841e+00    3.386766e+03
  6.833959e+00    3.465754e+03
  6.887077e+00    3.384813e+03
  6.940196e+00    3.373275e+03
  6.993314e+00    3.438748e+03
  7.046432e+00    3.436664e+03
  7.099550e+00    3.698063e+03
  7.152668e+00    3.723515e+03
  7.205786e+00    3.434132e+03
  7.258905e+00    3.346887e+03
  7.312023e+00    3.217153e+03
  7.365141e+00    3.152191e+03
  7.418259e+00    3.118202e+03
  7.471377e+00    3.136028e+03
  7.524495e+00    3.235496e+03
  7.577614e+00    3.251541e+03
  7.630732e+00    3.314609e+03
  7.683850e+00    3.506653e+03
  7.736968e+00    3.678054e+03
  7.790086e+00    3.735694e+03
  7.843204e+00    3.628747e+03
  7.896322e+00    3.280160e+03
  7.949441e+00    3.067450e+03
  8.002559e+00    3.005898e+03
  8.055677e+00    2.992631e+03
  8.108795e+00    3.019640e+03
  8.161913e+00    3.158513e+03
  8.215031e+00    3.301301e+03
  8.268150e+00    3.128615e+03
  8.321268e+00    3.016746e+03
  8.374386e+00    3.045100e+03
  8.427504e+00    2.991137e+03
  8.480622e+00    2.957984e+03
  8.533740e+00    3.004474e+03
  8.586859e+00    3.044087e+03
  8.639977e+00    3.027200e+03
  8.693095e+00    2.968990e+03
  8.746213e+00    2.939284e+03
  8.799331e+00    2.930784e+03
  8.852449e+00    2.882963e+03
  8.905568e+00    2.869383e+03
  8.958686e+00    2.924052e+03
  9.011804e+00    2.931643e+03
  9.064922e+00    2.872800e+03
  9.118040e+00    2.748394e+03
  9.171158e+00    2.743015e+03
  9.224276e+00    2.762546e+03
  9.277395e+00    2.716572e+03
  9.330513e+00    2.684090e+03
  9.383631e+00    2.682810e+03
  9.436749e+00    2.661407e+03
  9.489867e+00    2.678098e+03
  9.542985e+00    2.694127e+03
  9.596104e+00    2.693062e+03
  9.649222e+00    2.645635e+03
  9.702340e+00    2.618581e+03
  9.755458e+00    2.626134e+03
  9.808576e+00    2.588763e+03
  9.861694e+00    2.583573e+03
  9.914813e+00    2.589406e+03
  9.967931e+00    2.599404e+03
  1.002105e+01    2.579821e+03
  1.007417e+01    2.535598e+03
  1.012729e+01    2.481578e+03
  1.018040e+01    2.475601e+03
  1.023352e+01    2.475303e+03
  1.028664e+01    2.464030e+03
  1.033976e+01    2.479856e+03
  1.039288e+01    2.491177e+03
  1.044599e+01    2.463566e+03
  1.049911e+01    2.472376e+03
  1.055223e+01    2.463285e+03
  1.060535e+01    2.443668e+03
  1.065847e+01    2.428223e+03
  1.071158e+01    2.419044e+03
  1.076470e+01    2.409513e+03
  1.081782e+01    2.439343e+03
  1.087094e+01    2.453226e+03
  1.092406e+01    2.435363e+03
  1.097718e+01    2.417590e+03
  1.103029e+01    2.384479e+03
  1.108341e+01    2.369200e+03
  1.113653e+01    2.362044e+03
  1.118965e+01    2.344373e+03
  1.124277e+01    2.337291e+03
  1.129588e+01    2.333092e+03
  1.134900e+01    2.327528e+03
  1.140212e+01    2.307390e+03
  1.145524e+01    2.283903e+03
  1.150836e+01    2.282788e+03
  1.156148e+01    2.289354e+03
  1.161459e+01    2.300329e+03
  1.166771e+01    2.286545e+03
  1.172083e+01    2.302730e+03
  1.177395e+01    2.293426e+03
  1.182707e+01    2.294550e+03
  1.188018e+01    2.309767e+03
  1.193330e+01    2.300354e+03
  1.198642e+01    2.283495e+03
  1.203954e+01    2.256610e+03
  1.209266e+01    2.244796e+03
  1.214578e+01    2.237836e+03
  1.219889e+01    2.240145e+03
  1.225201e+01    2.246685e+03
  1.230513e+01    2.260592e+03
  1.235825e+01    2.263405e+03
  1.241137e+01    2.243243e+03
  1.246448e+01    2.240811e+03
  1.251760e+01    2.246561e+03
  1.257072e+01    2.243068e+03
  1.262384e+01    2.239436e+03
  1.267696e+01    2.227180e+03
  1.273008e+01    2.214475e+03
  1.278319e+01    2.195527e+03
  1.283631e+01    2.179242e+03
  1.288943e+01    2.171150e+03
  1.294255e+01    2.157393e+03
  1.299567e+01    2.152518e+03
  1.304878e+01    2.143192e+03
  1.310190e+01    2.142131e+03
  1.315502e+01    2.142418e+03
  1.320814e+01    2.115740e+03
  1.326126e+01    2.083547e+03
  1.331437e+01    2.064305e+03
  1.336749e+01    2.053038e+03
  1.342061e+01    2.036868e+03
  1.347373e+01    2.063128e+03
  1.352685e+01    2.066273e+03
  1.357997e+01    2.057744e+03
  1.363308e+01    2.050438e+03
  1.368620e+01    2.037826e+03
  1.373932e+01    2.023174e+03
  1.379244e+01    2.012608e+03
  1.384556e+01    2.008556e+03
  1.389867e+01    2.003636e+03
  1.395179e+01    1.997905e+03
  1.400491e+01    1.995873e+03
  1.405803e+01    1.990632e+03
  1.411115e+01    1.982356e+03
  1.416427e+01    1.977733e+03
  1.421738e+01    1.977107e+03
  1.427050e+01    1.970914e+03
  1.432362e+01    1.971521e+03
  1.437674e+01    1.973531e+03
  1.442986e+01    1.962915e+03
  1.448297e+01    1.953897e+03
  1.453609e+01    1.944907e+03
  1.458921e+01    1.932726e+03
  1.464233e+01    1.929457e+03
  1.469545e+01    1.924781e+03
  1.474857e+01    1.912041e+03
  1.480168e+01    1.924798e+03
  1.485480e+01    1.920727e+03
  1.490792e+01    1.914989e+03
  1.496104e+01    1.903771e+03
  1.501416e+01    1.900704e+03
  1.506727e+01    1.895288e+03
  1.512039e+01    1.890869e+03
  1.517351e+01    1.902657e+03
  1.522663e+01    1.915171e+03
  1.527975e+01    1.912005e+03
  1.533286e+01    1.898276e+03
  1.538598e+01    1.884476e+03
  1.543910e+01    1.873607e+03
  1.549222e+01    1.875013e+03
  1.554534e+01    1.874316e+03
  1.559846e+01    1.873011e+03
  1.565157e+01    1.866106e+03
  1.570469e+01    1.857977e+03
  1.575781e+01    1.853877e+03
  1.581093e+01    1.849653e+03
  1.586405e+01    1.847347e+03
  1.591716e+01    1.841368e+03
  1.597028e+01    1.834638e+03
  1.602340e+01    1.816654e+03
  1.607652e+01    1.805473e+03
  1.612964e+01    1.783385e+03
  1.618276e+01    1.771824e+03
  1.623587e+01    1.774679e+03
  1.628899e+01    1.792726e+03
  1.634211e+01    1.790689e+03
  1.639523e+01    1.786503e+03
  1.644835e+01    1.790152e+03
  1.650146e+01    1.784250e+03
  1.655458e+01    1.784853e+03
  1.660770e+01    1.777559e+03
  1.666082e+01    1.772808e+03
  1.671394e+01    1.770551e+03
  1.676706e+01    1.766138e+03
  1.682017e+01    1.778947e+03
  1.687329e+01    1.768333e+03
  1.692641e+01    1.761547e+03
  1.697953e+01    1.757619e+03
  1.703265e+01    1.751443e+03
  1.708576e+01    1.752224e+03
  1.713888e+01    1.742900e+03
  1.719200e+01    1.741488e+03
  1.724512e+01    1.732015e+03
  1.729824e+01    1.732893e+03
  1.735136e+01    1.727363e+03
  1.740447e+01    1.703580e+03
  1.745759e+01    1.712151e+03
  1.751071e+01    1.710954e+03
  1.756383e+01    1.722682e+03
  1.761695e+01    1.704829e+03
  1.767006e+01    1.702836e+03
  1.772318e+01    1.691590e+03
  1.777630e+01    1.692374e+03
  1.782942e+01    1.684448e+03
  1.788254e+01    1.680573e+03
  1.793565e+01    1.678688e+03
  1.798877e+01    1.674686e+03
  1.804189e+01    1.668398e+03
  1.809501e+01    1.662940e+03
  1.814813e+01    1.660239e+03
  1.820125e+01    1.655767e+03
  1.825436e+01    1.659819e+03
  1.830748e+01    1.654979e+03
  1.836060e+01    1.650922e+03
  1.841372e+01    1.648912e+03
  1.846684e+01    1.643527e+03
  1.851995e+01    1.624091e+03
  1.857307e+01    1.607093e+03
  1.862619e+01    1.597068e+03
  1.867931e+01    1.594148e+03
  1.873243e+01    1.615412e+03
  1.878555e+01    1.617912e+03
  1.883866e+01    1.615714e+03
  1.889178e+01    1.614963e+03
  1.894490e+01    1.626419e+03
  1.899802e+01    1.617272e+03
  1.905114e+01    1.611354e+03
  1.910425e+01    1.605602e+03
  1.915737e+01    1.602853e+03
  1.921049e+01    1.597203e+03
  1.926361e+01    1.594389e+03
  1.931673e+01    1.589363e+03
  1.936985e+01    1.587763e+03
  1.942296e+01    1.585243e+03
  1.947608e+01    1.586043e+03
  1.952920e+01    1.580819e+03
  1.958232e+01    1.581213e+03
  1.963544e+01    1.586611e+03
  1.968855e+01    1.570501e+03
  1.974167e+01    1.559704e+03
  1.979479e+01    1.564402e+03
  1.984791e+01    1.562418e+03
  1.990103e+01    1.560493e+03
  1.995414e+01    1.558615e+03
  2.000726e+01    1.555421e+03
  2.006038e+01    1.551277e+03
  2.011350e+01    1.547933e+03
  2.016662e+01    1.541818e+03
  2.021974e+01    1.544939e+03
  2.027285e+01    1.552331e+03
  2.032597e+01    1.535438e+03
  2.037909e+01    1.529636e+03
  2.043221e+01    1.525140e+03
  2.048533e+01    1.524017e+03
  2.053844e+01    1.524512e+03
  2.059156e+01    1.517974e+03
  2.064468e+01    1.515219e+03
  2.069780e+01    1.495909e+03
  2.075092e+01    1.470494e+03
  2.080404e+01    1.456055e+03
  2.085715e+01    1.475043e+03
  2.091027e+01    1.502774e+03
  2.096339e+01    1.509589e+03
  2.101651e+01    1.515571e+03
  2.106963e+01    1.518777e+03
  2.112274e+01    1.523632e+03
  2.117586e+01    1.524965e+03
  2.122898e+01    1.527380e+03
  2.128210e+01    1.524442e+03
  2.133522e+01    1.525443e+03
  2.138834e+01    1.524037e+03
  2.144145e+01    1.522046e+03
  2.149457e+01    1.522557e+03
  2.154769e+01    1.520764e+03
  2.160081e+01    1.521489e+03
  2.165393e+01    1.523557e+03
  2.170704e+01    1.523021e+03
  2.176016e+01    1.512288e+03
  2.181328e+01    1.519710e+03
  2.186640e+01    1.521587e+03
  2.191952e+01    1.519521e+03
  2.197263e+01    1.516776e+03
  2.202575e+01    1.514845e+03
  2.207887e+01    1.515061e+03
  2.213199e+01    1.511989e+03
  2.218511e+01    1.511875e+03
  2.223823e+01    1.510444e+03
  2.229134e+01    1.508923e+03
  2.234446e+01    1.507335e+03
  2.239758e+01    1.507189e+03
  2.245070e+01    1.504881e+03
  2.250382e+01    1.506242e+03
  2.255693e+01    1.503443e+03
  2.261005e+01    1.484924e+03
  2.266317e+01    1.471344e+03
  2.271629e+01    1.462601e+03
  2.276941e+01    1.454079e+03
  2.282253e+01    1.446063e+03
  2.287564e+01    1.442251e+03
  2.292876e+01    1.436189e+03
  2.298188e+01    1.433128e+03
  2.303500e+01    1.432120e+03
  2.308812e+01    1.428182e+03
  2.314123e+01    1.426372e+03
  2.319435e+01    1.420441e+03
  2.324747e+01    1.413710e+03
  2.330059e+01    1.411346e+03
  2.335371e+01    1.408084e+03
  2.340683e+01    1.404191e+03
  2.345994e+01    1.401018e+03
  2.351306e+01    1.397501e+03
  2.356618e+01    1.391903e+03
  2.361930e+01    1.386406e+03
  2.367242e+01    1.381841e+03
  2.372553e+01    1.377098e+03
  2.377865e+01    1.372132e+03
  2.383177e+01    1.364914e+03
  2.388489e+01    1.362486e+03
  2.393801e+01    1.356914e+03
  2.399113e+01    1.356081e+03
  2.404424e+01    1.354424e+03
  2.409736e+01    1.352450e+03
  2.415048e+01    1.346947e+03
  2.420360e+01    1.344015e+03
  2.425672e+01    1.339934e+03
  2.430983e+01    1.335796e+03
  2.436295e+01    1.333930e+03
  2.441607e+01    1.334876e+03
  2.446919e+01    1.331341e+03
  2.452231e+01    1.331866e+03
  2.457542e+01    1.327354e+03
  2.462854e+01    1.323943e+03
  2.468166e+01    1.325729e+03
  2.473478e+01    1.318020e+03
  2.478790e+01    1.311651e+03
  2.484102e+01    1.311491e+03
  2.489413e+01    1.304285e+03
  2.494725e+01    1.299114e+03
  2.500037e+01    1.296031e+03
  2.505349e+01    1.291200e+03
  2.510661e+01    1.284885e+03
  2.515972e+01    1.283358e+03
  2.521284e+01    1.280624e+03
  2.526596e+01    1.280714e+03
  2.531908e+01    1.275490e+03
  2.537220e+01    1.271453e+03
  2.542532e+01    1.269202e+03
  2.547843e+01    1.266366e+03
  2.553155e+01    1.260267e+03
  2.558467e+01    1.255601e+03
  2.563779e+01    1.244737e+03
  2.569091e+01    1.242026e+03
  2.574402e+01    1.228561e+03
  2.579714e+01    1.224729e+03
  2.585026e+01    1.217111e+03
  2.590338e+01    1.210157e+03
  2.595650e+01    1.209442e+03
  2.600962e+01    1.207578e+03
  2.606273e+01    1.208770e+03
  2.611585e+01    1.202535e+03
  2.616897e+01    1.204539e+03
  2.622209e+01    1.202843e+03
  2.627521e+01    1.199886e+03
  2.632832e+01    1.187735e+03
  2.638144e+01    1.184534e+03
  2.643456e+01    1.180977e+03
  2.648768e+01    1.168402e+03
  2.654080e+01    1.171696e+03
