# == pyFAI calibration ==
# Distance Sample to Detector: 0.2946421923531691 m
# PONI: 2.875e-01, 2.439e-01 m
# Rotations: -0.010990 -0.009181 0.000003 rad
# 
# == Fit2d calibration ==
# Distance Sample-beamCenter: 294.672 mm
# Center: x=1436.809, y=1655.851 pix
# Tilt: 0.820 deg  TiltPlanRot: -39.874 deg
# 
# Detector Pilatus 2M	 PixelSize= 1.720e-04, 1.720e-04 m
#    Detector has a mask: True 
#    Detector has a dark current: False 
#    detector has a flat field: False 
# 
# Wavelength: 2.0732883349524408e-11 m
# Mask applied: from detector
# Dark current applied: False
# Flat field applied: False
# Polarization factor: None
# Normalization factor: 1.0
# --> /gpfs/current/raw/FMue_3/FMue_3_20231024_175355_00035.dat
#        q_A^-1             I 
  3.483473e-02             nan
  8.795289e-02             nan
  1.410711e-01             nan
  1.941892e-01             nan
  2.473074e-01             nan
  3.004255e-01             nan
  3.535437e-01             nan
  4.066619e-01    9.791974e+03
  4.597800e-01    9.316492e+03
  5.128982e-01    8.338927e+03
  5.660163e-01    7.945854e+03
  6.191345e-01    7.940257e+03
  6.722527e-01    8.036550e+03
  7.253708e-01    8.361642e+03
  7.784890e-01    1.345837e+04
  8.316071e-01    2.725317e+04
  8.847253e-01    1.670077e+04
  9.378435e-01    9.350654e+03
  9.909616e-01    9.935527e+03
  1.044080e+00    1.009211e+04
  1.097198e+00    9.848323e+03
  1.150316e+00    1.021907e+04
  1.203434e+00    1.092423e+04
  1.256552e+00    1.194120e+04
  1.309671e+00    1.276734e+04
  1.362789e+00    1.366221e+04
  1.415907e+00    1.434876e+04
  1.469025e+00    1.457834e+04
  1.522143e+00    1.450340e+04
  1.575261e+00    1.402856e+04
  1.628380e+00    1.581756e+04
  1.681498e+00    1.755117e+04
  1.734616e+00    1.247947e+04
  1.787734e+00    1.044876e+04
  1.840852e+00    9.693506e+03
  1.893970e+00    9.150337e+03
  1.947089e+00    9.063714e+03
  2.000207e+00    8.694587e+03
  2.053325e+00    7.985944e+03
  2.106443e+00    7.763796e+03
  2.159561e+00    7.892186e+03
  2.212679e+00    8.063856e+03
  2.265797e+00    8.296034e+03
  2.318916e+00    8.156946e+03
  2.372034e+00    8.828102e+03
  2.425152e+00    1.319942e+04
  2.478270e+00    9.232249e+03
  2.531388e+00    8.056125e+03
  2.584506e+00    8.825385e+03
  2.637625e+00    8.671667e+03
  2.690743e+00    9.136712e+03
  2.743861e+00    1.245274e+04
  2.796979e+00    8.114549e+03
  2.850097e+00    5.803934e+03
  2.903215e+00    5.387395e+03
  2.956334e+00    5.219274e+03
  3.009452e+00    5.336470e+03
  3.062570e+00    6.189777e+03
  3.115688e+00    7.837896e+03
  3.168806e+00    8.753945e+03
  3.221924e+00    1.041780e+04
  3.275043e+00    9.666654e+03
  3.328161e+00    6.167041e+03
  3.381279e+00    5.923610e+03
  3.434397e+00    5.312162e+03
  3.487515e+00    5.022405e+03
  3.540633e+00    4.959020e+03
  3.593751e+00    5.059637e+03
  3.646870e+00    6.152350e+03
  3.699988e+00    5.510521e+03
  3.753106e+00    4.924586e+03
  3.806224e+00    5.081683e+03
  3.859342e+00    5.835485e+03
  3.912460e+00    5.570447e+03
  3.965579e+00    5.133284e+03
  4.018697e+00    5.467748e+03
  4.071815e+00    7.443028e+03
  4.124933e+00    7.966777e+03
  4.178051e+00    8.591135e+03
  4.231169e+00    6.736750e+03
  4.284288e+00    6.374420e+03
  4.337406e+00    7.235834e+03
  4.390524e+00    7.858854e+03
  4.443642e+00    1.020830e+04
  4.496760e+00    1.182348e+04
  4.549878e+00    9.366920e+03
  4.602997e+00    6.147672e+03
  4.656115e+00    5.188744e+03
  4.709233e+00    5.344437e+03
  4.762351e+00    5.989155e+03
  4.815469e+00    5.663084e+03
  4.868587e+00    5.315193e+03
  4.921705e+00    5.732708e+03
  4.974824e+00    5.565701e+03
  5.027942e+00    5.753651e+03
  5.081060e+00    5.681334e+03
  5.134178e+00    5.193297e+03
  5.187296e+00    5.099198e+03
  5.240414e+00    5.252573e+03
  5.293533e+00    4.883612e+03
  5.346651e+00    4.487648e+03
  5.399769e+00    4.286732e+03
  5.452887e+00    4.408115e+03
  5.506005e+00    4.560338e+03
  5.559123e+00    4.058475e+03
  5.612242e+00    3.905464e+03
  5.665360e+00    3.815413e+03
  5.718478e+00    3.534959e+03
  5.771596e+00    3.531195e+03
  5.824714e+00    3.667103e+03
  5.877832e+00    3.641020e+03
  5.930951e+00    3.711005e+03
  5.984069e+00    3.831065e+03
  6.037187e+00    3.751196e+03
  6.090305e+00    3.753971e+03
  6.143423e+00    3.702158e+03
  6.196541e+00    3.712208e+03
  6.249660e+00    4.219831e+03
  6.302778e+00    4.294015e+03
  6.355896e+00    3.960879e+03
  6.409014e+00    4.094189e+03
  6.462132e+00    3.948602e+03
  6.515250e+00    3.835183e+03
  6.568368e+00    3.653586e+03
  6.621487e+00    3.685198e+03
  6.674605e+00    3.609564e+03
  6.727723e+00    3.436818e+03
  6.780841e+00    3.375163e+03
  6.833959e+00    3.450491e+03
  6.887077e+00    3.370341e+03
  6.940196e+00    3.355193e+03
  6.993314e+00    3.417136e+03
  7.046432e+00    3.419236e+03
  7.099550e+00    3.656260e+03
  7.152668e+00    3.683880e+03
  7.205786e+00    3.409383e+03
  7.258905e+00    3.324906e+03
  7.312023e+00    3.197165e+03
  7.365141e+00    3.135009e+03
  7.418259e+00    3.105939e+03
  7.471377e+00    3.121532e+03
  7.524495e+00    3.215978e+03
  7.577614e+00    3.231409e+03
  7.630732e+00    3.294070e+03
  7.683850e+00    3.491578e+03
  7.736968e+00    3.658546e+03
  7.790086e+00    3.697712e+03
  7.843204e+00    3.589029e+03
  7.896322e+00    3.261835e+03
  7.949441e+00    3.052811e+03
  8.002559e+00    2.992519e+03
  8.055677e+00    2.979208e+03
  8.108795e+00    3.005844e+03
  8.161913e+00    3.138240e+03
  8.215031e+00    3.273216e+03
  8.268150e+00    3.107112e+03
  8.321268e+00    2.999935e+03
  8.374386e+00    3.021251e+03
  8.427504e+00    2.974722e+03
  8.480622e+00    2.945822e+03
  8.533740e+00    2.984847e+03
  8.586859e+00    3.020359e+03
  8.639977e+00    3.001438e+03
  8.693095e+00    2.947869e+03
  8.746213e+00    2.921911e+03
  8.799331e+00    2.914786e+03
  8.852449e+00    2.867555e+03
  8.905568e+00    2.852393e+03
  8.958686e+00    2.909064e+03
  9.011804e+00    2.914957e+03
  9.064922e+00    2.850707e+03
  9.118040e+00    2.733344e+03
  9.171158e+00    2.720884e+03
  9.224276e+00    2.743424e+03
  9.277395e+00    2.698385e+03
  9.330513e+00    2.665829e+03
  9.383631e+00    2.665872e+03
  9.436749e+00    2.651076e+03
  9.489867e+00    2.664362e+03
  9.542985e+00    2.673321e+03
  9.596104e+00    2.671482e+03
  9.649222e+00    2.628786e+03
  9.702340e+00    2.601758e+03
  9.755458e+00    2.607219e+03
  9.808576e+00    2.573909e+03
  9.861694e+00    2.570217e+03
  9.914813e+00    2.578306e+03
  9.967931e+00    2.579654e+03
  1.002105e+01    2.557691e+03
  1.007417e+01    2.516870e+03
  1.012729e+01    2.466771e+03
  1.018040e+01    2.459775e+03
  1.023352e+01    2.457152e+03
  1.028664e+01    2.450942e+03
  1.033976e+01    2.461333e+03
  1.039288e+01    2.475349e+03
  1.044599e+01    2.449955e+03
  1.049911e+01    2.454056e+03
  1.055223e+01    2.443715e+03
  1.060535e+01    2.427353e+03
  1.065847e+01    2.414794e+03
  1.071158e+01    2.405296e+03
  1.076470e+01    2.395881e+03
  1.081782e+01    2.421750e+03
  1.087094e+01    2.430443e+03
  1.092406e+01    2.416605e+03
  1.097718e+01    2.400128e+03
  1.103029e+01    2.371777e+03
  1.108341e+01    2.356987e+03
  1.113653e+01    2.348085e+03
  1.118965e+01    2.329536e+03
  1.124277e+01    2.321345e+03
  1.129588e+01    2.317196e+03
  1.134900e+01    2.310829e+03
  1.140212e+01    2.293379e+03
  1.145524e+01    2.272732e+03
  1.150836e+01    2.270476e+03
  1.156148e+01    2.272324e+03
  1.161459e+01    2.283529e+03
  1.166771e+01    2.271172e+03
  1.172083e+01    2.288908e+03
  1.177395e+01    2.278173e+03
  1.182707e+01    2.281270e+03
  1.188018e+01    2.293536e+03
  1.193330e+01    2.283768e+03
  1.198642e+01    2.267015e+03
  1.203954e+01    2.241103e+03
  1.209266e+01    2.232935e+03
  1.214578e+01    2.225060e+03
  1.219889e+01    2.224688e+03
  1.225201e+01    2.232684e+03
  1.230513e+01    2.243306e+03
  1.235825e+01    2.246212e+03
  1.241137e+01    2.228420e+03
  1.246448e+01    2.226834e+03
  1.251760e+01    2.232687e+03
  1.257072e+01    2.227221e+03
  1.262384e+01    2.224508e+03
  1.267696e+01    2.210172e+03
  1.273008e+01    2.197611e+03
  1.278319e+01    2.180894e+03
  1.283631e+01    2.163617e+03
  1.288943e+01    2.156125e+03
  1.294255e+01    2.143838e+03
  1.299567e+01    2.139779e+03
  1.304878e+01    2.129402e+03
  1.310190e+01    2.126546e+03
  1.315502e+01    2.125995e+03
  1.320814e+01    2.102739e+03
  1.326126e+01    2.067470e+03
  1.331437e+01    2.051185e+03
  1.336749e+01    2.038411e+03
  1.342061e+01    2.022221e+03
  1.347373e+01    2.047257e+03
  1.352685e+01    2.051635e+03
  1.357997e+01    2.044727e+03
  1.363308e+01    2.035672e+03
  1.368620e+01    2.024996e+03
  1.373932e+01    2.009515e+03
  1.379244e+01    1.999285e+03
  1.384556e+01    1.994440e+03
  1.389867e+01    1.990744e+03
  1.395179e+01    1.985680e+03
  1.400491e+01    1.984919e+03
  1.405803e+01    1.978449e+03
  1.411115e+01    1.971195e+03
  1.416427e+01    1.964345e+03
  1.421738e+01    1.963769e+03
  1.427050e+01    1.955735e+03
  1.432362e+01    1.960208e+03
  1.437674e+01    1.960366e+03
  1.442986e+01    1.949798e+03
  1.448297e+01    1.939089e+03
  1.453609e+01    1.932866e+03
  1.458921e+01    1.922209e+03
  1.464233e+01    1.916105e+03
  1.469545e+01    1.912556e+03
  1.474857e+01    1.897627e+03
  1.480168e+01    1.911323e+03
  1.485480e+01    1.907034e+03
  1.490792e+01    1.901252e+03
  1.496104e+01    1.890316e+03
  1.501416e+01    1.889481e+03
  1.506727e+01    1.883450e+03
  1.512039e+01    1.878218e+03
  1.517351e+01    1.891756e+03
  1.522663e+01    1.903472e+03
  1.527975e+01    1.900587e+03
  1.533286e+01    1.883707e+03
  1.538598e+01    1.872952e+03
  1.543910e+01    1.863916e+03
  1.549222e+01    1.861924e+03
  1.554534e+01    1.863858e+03
  1.559846e+01    1.861750e+03
  1.565157e+01    1.853571e+03
  1.570469e+01    1.846938e+03
  1.575781e+01    1.841626e+03
  1.581093e+01    1.837179e+03
  1.586405e+01    1.833721e+03
  1.591716e+01    1.828887e+03
  1.597028e+01    1.821896e+03
  1.602340e+01    1.806085e+03
  1.607652e+01    1.794050e+03
  1.612964e+01    1.771609e+03
  1.618276e+01    1.761186e+03
  1.623587e+01    1.761993e+03
  1.628899e+01    1.780491e+03
  1.634211e+01    1.779479e+03
  1.639523e+01    1.773972e+03
  1.644835e+01    1.778468e+03
  1.650146e+01    1.772124e+03
  1.655458e+01    1.772411e+03
  1.660770e+01    1.766621e+03
  1.666082e+01    1.760452e+03
  1.671394e+01    1.758549e+03
  1.676706e+01    1.754083e+03
  1.682017e+01    1.768239e+03
  1.687329e+01    1.755800e+03
  1.692641e+01    1.749938e+03
  1.697953e+01    1.745577e+03
  1.703265e+01    1.740930e+03
  1.708576e+01    1.739017e+03
  1.713888e+01    1.731285e+03
  1.719200e+01    1.729366e+03
  1.724512e+01    1.721920e+03
  1.729824e+01    1.720731e+03
  1.735136e+01    1.714881e+03
  1.740447e+01    1.691947e+03
  1.745759e+01    1.699914e+03
  1.751071e+01    1.700445e+03
  1.756383e+01    1.709740e+03
  1.761695e+01    1.694578e+03
  1.767006e+01    1.689857e+03
  1.772318e+01    1.682638e+03
  1.777630e+01    1.681379e+03
  1.782942e+01    1.672662e+03
  1.788254e+01    1.668917e+03
  1.793565e+01    1.666165e+03
  1.798877e+01    1.664296e+03
  1.804189e+01    1.657256e+03
  1.809501e+01    1.651696e+03
  1.814813e+01    1.649503e+03
  1.820125e+01    1.644417e+03
  1.825436e+01    1.650893e+03
  1.830748e+01    1.643922e+03
  1.836060e+01    1.639377e+03
  1.841372e+01    1.637572e+03
  1.846684e+01    1.632891e+03
  1.851995e+01    1.613720e+03
  1.857307e+01    1.598012e+03
  1.862619e+01    1.586526e+03
  1.867931e+01    1.583505e+03
  1.873243e+01    1.603522e+03
  1.878555e+01    1.606681e+03
  1.883866e+01    1.605652e+03
  1.889178e+01    1.604003e+03
  1.894490e+01    1.616793e+03
  1.899802e+01    1.606311e+03
  1.905114e+01    1.599750e+03
  1.910425e+01    1.595304e+03
  1.915737e+01    1.590300e+03
  1.921049e+01    1.587133e+03
  1.926361e+01    1.582437e+03
  1.931673e+01    1.580359e+03
  1.936985e+01    1.577554e+03
  1.942296e+01    1.575058e+03
  1.947608e+01    1.575272e+03
  1.952920e+01    1.569399e+03
  1.958232e+01    1.571062e+03
  1.963544e+01    1.576894e+03
  1.968855e+01    1.561808e+03
  1.974167e+01    1.549559e+03
  1.979479e+01    1.553044e+03
  1.984791e+01    1.552070e+03
  1.990103e+01    1.551902e+03
  1.995414e+01    1.547240e+03
  2.000726e+01    1.543943e+03
  2.006038e+01    1.541537e+03
  2.011350e+01    1.537584e+03
  2.016662e+01    1.530867e+03
  2.021974e+01    1.535122e+03
  2.027285e+01    1.540450e+03
  2.032597e+01    1.524505e+03
  2.037909e+01    1.520750e+03
  2.043221e+01    1.515798e+03
  2.048533e+01    1.514056e+03
  2.053844e+01    1.513469e+03
  2.059156e+01    1.507521e+03
  2.064468e+01    1.504251e+03
  2.069780e+01    1.484929e+03
  2.075092e+01    1.461016e+03
  2.080404e+01    1.444580e+03
  2.085715e+01    1.465748e+03
  2.091027e+01    1.492614e+03
  2.096339e+01    1.499602e+03
  2.101651e+01    1.504926e+03
  2.106963e+01    1.508731e+03
  2.112274e+01    1.512509e+03
  2.117586e+01    1.514048e+03
  2.122898e+01    1.517467e+03
  2.128210e+01    1.512774e+03
  2.133522e+01    1.514917e+03
  2.138834e+01    1.512820e+03
  2.144145e+01    1.512628e+03
  2.149457e+01    1.513979e+03
  2.154769e+01    1.513803e+03
  2.160081e+01    1.511238e+03
  2.165393e+01    1.512745e+03
  2.170704e+01    1.511174e+03
  2.176016e+01    1.501495e+03
  2.181328e+01    1.510081e+03
  2.186640e+01    1.510956e+03
  2.191952e+01    1.510410e+03
  2.197263e+01    1.506155e+03
  2.202575e+01    1.505014e+03
  2.207887e+01    1.504910e+03
  2.213199e+01    1.502828e+03
  2.218511e+01    1.501720e+03
  2.223823e+01    1.500555e+03
  2.229134e+01    1.498272e+03
  2.234446e+01    1.498870e+03
  2.239758e+01    1.496915e+03
  2.245070e+01    1.493800e+03
  2.250382e+01    1.497415e+03
  2.255693e+01    1.493145e+03
  2.261005e+01    1.474825e+03
  2.266317e+01    1.460808e+03
  2.271629e+01    1.450829e+03
  2.276941e+01    1.443357e+03
  2.282253e+01    1.435258e+03
  2.287564e+01    1.431038e+03
  2.292876e+01    1.426172e+03
  2.298188e+01    1.424226e+03
  2.303500e+01    1.419834e+03
  2.308812e+01    1.417264e+03
  2.314123e+01    1.417022e+03
  2.319435e+01    1.412048e+03
  2.324747e+01    1.404601e+03
  2.330059e+01    1.399933e+03
  2.335371e+01    1.398276e+03
  2.340683e+01    1.393750e+03
  2.345994e+01    1.389952e+03
  2.351306e+01    1.388258e+03
  2.356618e+01    1.383586e+03
  2.361930e+01    1.377286e+03
  2.367242e+01    1.372994e+03
  2.372553e+01    1.366226e+03
  2.377865e+01    1.362898e+03
  2.383177e+01    1.357408e+03
  2.388489e+01    1.350346e+03
  2.393801e+01    1.347512e+03
  2.399113e+01    1.345985e+03
  2.404424e+01    1.346573e+03
  2.409736e+01    1.342459e+03
  2.415048e+01    1.338334e+03
  2.420360e+01    1.334750e+03
  2.425672e+01    1.332021e+03
  2.430983e+01    1.327870e+03
  2.436295e+01    1.325882e+03
  2.441607e+01    1.325179e+03
  2.446919e+01    1.321881e+03
  2.452231e+01    1.321371e+03
  2.457542e+01    1.320016e+03
  2.462854e+01    1.314186e+03
  2.468166e+01    1.314347e+03
  2.473478e+01    1.309797e+03
  2.478790e+01    1.302733e+03
  2.484102e+01    1.300489e+03
  2.489413e+01    1.295864e+03
  2.494725e+01    1.290084e+03
  2.500037e+01    1.288306e+03
  2.505349e+01    1.280525e+03
  2.510661e+01    1.276383e+03
  2.515972e+01    1.273990e+03
  2.521284e+01    1.272991e+03
  2.526596e+01    1.270409e+03
  2.531908e+01    1.264400e+03
  2.537220e+01    1.263754e+03
  2.542532e+01    1.258569e+03
  2.547843e+01    1.257613e+03
  2.553155e+01    1.252354e+03
  2.558467e+01    1.247556e+03
  2.563779e+01    1.237605e+03
  2.569091e+01    1.233993e+03
  2.574402e+01    1.224571e+03
  2.579714e+01    1.216596e+03
  2.585026e+01    1.206637e+03
  2.590338e+01    1.201993e+03
  2.595650e+01    1.201202e+03
  2.600962e+01    1.198361e+03
  2.606273e+01    1.197628e+03
  2.611585e+01    1.200138e+03
  2.616897e+01    1.196413e+03
  2.622209e+01    1.196365e+03
  2.627521e+01    1.191104e+03
  2.632832e+01    1.180778e+03
  2.638144e+01    1.182712e+03
  2.643456e+01    1.179405e+03
  2.648768e+01    1.157984e+03
  2.654080e+01    1.157441e+03
