# == pyFAI calibration ==
# Distance Sample to Detector: 0.2946421923531691 m
# PONI: 2.875e-01, 2.439e-01 m
# Rotations: -0.010990 -0.009181 0.000003 rad
# 
# == Fit2d calibration ==
# Distance Sample-beamCenter: 294.672 mm
# Center: x=1436.809, y=1655.851 pix
# Tilt: 0.820 deg  TiltPlanRot: -39.874 deg
# 
# Detector Pilatus 2M	 PixelSize= 1.720e-04, 1.720e-04 m
#    Detector has a mask: True 
#    Detector has a dark current: False 
#    detector has a flat field: False 
# 
# Wavelength: 2.0732883349524408e-11 m
# Mask applied: from detector
# Dark current applied: False
# Flat field applied: False
# Polarization factor: None
# Normalization factor: 1.0
# --> /gpfs/current/raw/FMue_3/FMue_3_20231024_175355_00226.dat
#        q_A^-1             I 
  3.483473e-02             nan
  8.795289e-02             nan
  1.410711e-01             nan
  1.941892e-01             nan
  2.473074e-01             nan
  3.004255e-01             nan
  3.535437e-01             nan
  4.066619e-01    1.120629e+04
  4.597800e-01    1.028107e+04
  5.128982e-01    8.806990e+03
  5.660163e-01    8.058625e+03
  6.191345e-01    7.806896e+03
  6.722527e-01    7.727075e+03
  7.253708e-01    7.800275e+03
  7.784890e-01    7.855186e+03
  8.316071e-01    8.011104e+03
  8.847253e-01    8.146711e+03
  9.378435e-01    8.330975e+03
  9.909616e-01    8.549500e+03
  1.044080e+00    8.868458e+03
  1.097198e+00    9.306823e+03
  1.150316e+00    9.911045e+03
  1.203434e+00    1.062033e+04
  1.256552e+00    1.150223e+04
  1.309671e+00    1.268488e+04
  1.362789e+00    1.377474e+04
  1.415907e+00    1.422196e+04
  1.469025e+00    1.433083e+04
  1.522143e+00    1.420888e+04
  1.575261e+00    1.362773e+04
  1.628380e+00    1.289527e+04
  1.681498e+00    1.196495e+04
  1.734616e+00    1.099776e+04
  1.787734e+00    1.017852e+04
  1.840852e+00    9.461840e+03
  1.893970e+00    8.870526e+03
  1.947089e+00    8.452861e+03
  2.000207e+00    8.146277e+03
  2.053325e+00    8.035016e+03
  2.106443e+00    8.516720e+03
  2.159561e+00    9.709257e+03
  2.212679e+00    9.984821e+03
  2.265797e+00    9.334021e+03
  2.318916e+00    8.542074e+03
  2.372034e+00    7.823010e+03
  2.425152e+00    8.031351e+03
  2.478270e+00    9.495906e+03
  2.531388e+00    1.318267e+04
  2.584506e+00    1.432470e+04
  2.637625e+00    1.070361e+04
  2.690743e+00    8.444046e+03
  2.743861e+00    7.630606e+03
  2.796979e+00    6.386102e+03
  2.850097e+00    5.496531e+03
  2.903215e+00    5.190993e+03
  2.956334e+00    5.121925e+03
  3.009452e+00    5.460073e+03
  3.062570e+00    6.990980e+03
  3.115688e+00    9.280450e+03
  3.168806e+00    8.979643e+03
  3.221924e+00    7.240624e+03
  3.275043e+00    5.717239e+03
  3.328161e+00    4.872459e+03
  3.381279e+00    4.647123e+03
  3.434397e+00    4.656322e+03
  3.487515e+00    4.742965e+03
  3.540633e+00    4.663705e+03
  3.593751e+00    4.584405e+03
  3.646870e+00    4.639312e+03
  3.699988e+00    4.815924e+03
  3.753106e+00    5.158780e+03
  3.806224e+00    5.413380e+03
  3.859342e+00    5.380435e+03
  3.912460e+00    5.612958e+03
  3.965579e+00    6.527018e+03
  4.018697e+00    7.595185e+03
  4.071815e+00    7.502020e+03
  4.124933e+00    6.784108e+03
  4.178051e+00    6.342939e+03
  4.231169e+00    6.190662e+03
  4.284288e+00    6.568629e+03
  4.337406e+00    8.325430e+03
  4.390524e+00    1.061995e+04
  4.443642e+00    1.200730e+04
  4.496760e+00    1.215951e+04
  4.549878e+00    8.499335e+03
  4.602997e+00    5.889540e+03
  4.656115e+00    5.264748e+03
  4.709233e+00    5.064657e+03
  4.762351e+00    5.011743e+03
  4.815469e+00    5.075722e+03
  4.868587e+00    5.213497e+03
  4.921705e+00    5.286793e+03
  4.974824e+00    5.359552e+03
  5.027942e+00    5.530922e+03
  5.081060e+00    5.747578e+03
  5.134178e+00    5.527215e+03
  5.187296e+00    5.055185e+03
  5.240414e+00    4.661582e+03
  5.293533e+00    4.461980e+03
  5.346651e+00    4.386067e+03
  5.399769e+00    4.300397e+03
  5.452887e+00    4.263114e+03
  5.506005e+00    4.137728e+03
  5.559123e+00    3.784893e+03
  5.612242e+00    3.606300e+03
  5.665360e+00    3.571059e+03
  5.718478e+00    3.567108e+03
  5.771596e+00    3.637945e+03
  5.824714e+00    3.720308e+03
  5.877832e+00    3.900241e+03
  5.930951e+00    4.201491e+03
  5.984069e+00    4.209699e+03
  6.037187e+00    3.957329e+03
  6.090305e+00    3.777981e+03
  6.143423e+00    3.760829e+03
  6.196541e+00    3.917385e+03
  6.249660e+00    4.025473e+03
  6.302778e+00    3.885133e+03
  6.355896e+00    3.625037e+03
  6.409014e+00    3.526692e+03
  6.462132e+00    3.464162e+03
  6.515250e+00    3.427770e+03
  6.568368e+00    3.456925e+03
  6.621487e+00    3.526699e+03
  6.674605e+00    3.661351e+03
  6.727723e+00    3.718721e+03
  6.780841e+00    3.528678e+03
  6.833959e+00    3.332750e+03
  6.887077e+00    3.246490e+03
  6.940196e+00    3.223953e+03
  6.993314e+00    3.242807e+03
  7.046432e+00    3.242354e+03
  7.099550e+00    3.172858e+03
  7.152668e+00    3.115344e+03
  7.205786e+00    3.070425e+03
  7.258905e+00    3.060570e+03
  7.312023e+00    3.130684e+03
  7.365141e+00    3.238864e+03
  7.418259e+00    3.281142e+03
  7.471377e+00    3.266948e+03
  7.524495e+00    3.347006e+03
  7.577614e+00    3.506041e+03
  7.630732e+00    3.523370e+03
  7.683850e+00    3.526200e+03
  7.736968e+00    3.599547e+03
  7.790086e+00    3.503547e+03
  7.843204e+00    3.338601e+03
  7.896322e+00    3.218899e+03
  7.949441e+00    3.190298e+03
  8.002559e+00    3.207544e+03
  8.055677e+00    3.161458e+03
  8.108795e+00    3.072914e+03
  8.161913e+00    3.018460e+03
  8.215031e+00    2.977012e+03
  8.268150e+00    2.933477e+03
  8.321268e+00    2.898277e+03
  8.374386e+00    2.877404e+03
  8.427504e+00    2.859709e+03
  8.480622e+00    2.851846e+03
  8.533740e+00    2.812855e+03
  8.586859e+00    2.846537e+03
  8.639977e+00    2.830300e+03
  8.693095e+00    2.817929e+03
  8.746213e+00    2.832617e+03
  8.799331e+00    2.816734e+03
  8.852449e+00    2.791215e+03
  8.905568e+00    2.792970e+03
  8.958686e+00    2.791745e+03
  9.011804e+00    2.791216e+03
  9.064922e+00    2.749003e+03
  9.118040e+00    2.724519e+03
  9.171158e+00    2.701515e+03
  9.224276e+00    2.652503e+03
  9.277395e+00    2.601114e+03
  9.330513e+00    2.569265e+03
  9.383631e+00    2.545774e+03
  9.436749e+00    2.536977e+03
  9.489867e+00    2.552045e+03
  9.542985e+00    2.564751e+03
  9.596104e+00    2.566501e+03
  9.649222e+00    2.575489e+03
  9.702340e+00    2.559708e+03
  9.755458e+00    2.547217e+03
  9.808576e+00    2.541210e+03
  9.861694e+00    2.538197e+03
  9.914813e+00    2.521020e+03
  9.967931e+00    2.498246e+03
  1.002105e+01    2.474959e+03
  1.007417e+01    2.458360e+03
  1.012729e+01    2.440750e+03
  1.018040e+01    2.419335e+03
  1.023352e+01    2.377441e+03
  1.028664e+01    2.339917e+03
  1.033976e+01    2.326474e+03
  1.039288e+01    2.346974e+03
  1.044599e+01    2.338968e+03
  1.049911e+01    2.342564e+03
  1.055223e+01    2.334663e+03
  1.060535e+01    2.337760e+03
  1.065847e+01    2.325136e+03
  1.071158e+01    2.314734e+03
  1.076470e+01    2.301095e+03
  1.081782e+01    2.301602e+03
  1.087094e+01    2.290319e+03
  1.092406e+01    2.304720e+03
  1.097718e+01    2.314002e+03
  1.103029e+01    2.314746e+03
  1.108341e+01    2.300888e+03
  1.113653e+01    2.278107e+03
  1.118965e+01    2.256119e+03
  1.124277e+01    2.242584e+03
  1.129588e+01    2.237551e+03
  1.134900e+01    2.234564e+03
  1.140212e+01    2.243266e+03
  1.145524e+01    2.246197e+03
  1.150836e+01    2.255154e+03
  1.156148e+01    2.254592e+03
  1.161459e+01    2.253075e+03
  1.166771e+01    2.232994e+03
  1.172083e+01    2.231386e+03
  1.177395e+01    2.214649e+03
  1.182707e+01    2.207845e+03
  1.188018e+01    2.209756e+03
  1.193330e+01    2.193362e+03
  1.198642e+01    2.173825e+03
  1.203954e+01    2.153617e+03
  1.209266e+01    2.149575e+03
  1.214578e+01    2.144740e+03
  1.219889e+01    2.152175e+03
  1.225201e+01    2.156271e+03
  1.230513e+01    2.147159e+03
  1.235825e+01    2.141133e+03
  1.241137e+01    2.125586e+03
  1.246448e+01    2.123394e+03
  1.251760e+01    2.118982e+03
  1.257072e+01    2.115982e+03
  1.262384e+01    2.120917e+03
  1.267696e+01    2.108828e+03
  1.273008e+01    2.092549e+03
  1.278319e+01    2.081204e+03
  1.283631e+01    2.070658e+03
  1.288943e+01    2.066409e+03
  1.294255e+01    2.054122e+03
  1.299567e+01    2.050138e+03
  1.304878e+01    2.047023e+03
  1.310190e+01    2.042625e+03
  1.315502e+01    2.039926e+03
  1.320814e+01    2.016112e+03
  1.326126e+01    1.992948e+03
  1.331437e+01    1.984901e+03
  1.336749e+01    1.980331e+03
  1.342061e+01    1.968622e+03
  1.347373e+01    1.986834e+03
  1.352685e+01    1.983835e+03
  1.357997e+01    1.971449e+03
  1.363308e+01    1.961135e+03
  1.368620e+01    1.957158e+03
  1.373932e+01    1.947939e+03
  1.379244e+01    1.943366e+03
  1.384556e+01    1.935525e+03
  1.389867e+01    1.925212e+03
  1.395179e+01    1.917798e+03
  1.400491e+01    1.914597e+03
  1.405803e+01    1.913287e+03
  1.411115e+01    1.905790e+03
  1.416427e+01    1.895768e+03
  1.421738e+01    1.889712e+03
  1.427050e+01    1.881433e+03
  1.432362e+01    1.883661e+03
  1.437674e+01    1.879384e+03
  1.442986e+01    1.869883e+03
  1.448297e+01    1.862992e+03
  1.453609e+01    1.856526e+03
  1.458921e+01    1.845302e+03
  1.464233e+01    1.841495e+03
  1.469545e+01    1.835051e+03
  1.474857e+01    1.817106e+03
  1.480168e+01    1.827305e+03
  1.485480e+01    1.821723e+03
  1.490792e+01    1.818077e+03
  1.496104e+01    1.809621e+03
  1.501416e+01    1.808201e+03
  1.506727e+01    1.805457e+03
  1.512039e+01    1.801775e+03
  1.517351e+01    1.814036e+03
  1.522663e+01    1.829025e+03
  1.527975e+01    1.826081e+03
  1.533286e+01    1.810795e+03
  1.538598e+01    1.802172e+03
  1.543910e+01    1.793392e+03
  1.549222e+01    1.787191e+03
  1.554534e+01    1.787206e+03
  1.559846e+01    1.783705e+03
  1.565157e+01    1.777493e+03
  1.570469e+01    1.772676e+03
  1.575781e+01    1.771301e+03
  1.581093e+01    1.767312e+03
  1.586405e+01    1.762540e+03
  1.591716e+01    1.757069e+03
  1.597028e+01    1.751296e+03
  1.602340e+01    1.735501e+03
  1.607652e+01    1.724531e+03
  1.612964e+01    1.700547e+03
  1.618276e+01    1.690115e+03
  1.623587e+01    1.691083e+03
  1.628899e+01    1.707847e+03
  1.634211e+01    1.704288e+03
  1.639523e+01    1.700220e+03
  1.644835e+01    1.701414e+03
  1.650146e+01    1.696457e+03
  1.655458e+01    1.694435e+03
  1.660770e+01    1.691111e+03
  1.666082e+01    1.685968e+03
  1.671394e+01    1.684556e+03
  1.676706e+01    1.678339e+03
  1.682017e+01    1.690299e+03
  1.687329e+01    1.681145e+03
  1.692641e+01    1.673807e+03
  1.697953e+01    1.670771e+03
  1.703265e+01    1.666434e+03
  1.708576e+01    1.664116e+03
  1.713888e+01    1.656450e+03
  1.719200e+01    1.655512e+03
  1.724512e+01    1.648096e+03
  1.729824e+01    1.646893e+03
  1.735136e+01    1.641348e+03
  1.740447e+01    1.619960e+03
  1.745759e+01    1.628458e+03
  1.751071e+01    1.629425e+03
  1.756383e+01    1.639249e+03
  1.761695e+01    1.624970e+03
  1.767006e+01    1.622009e+03
  1.772318e+01    1.611589e+03
  1.777630e+01    1.612619e+03
  1.782942e+01    1.603184e+03
  1.788254e+01    1.599841e+03
  1.793565e+01    1.596824e+03
  1.798877e+01    1.594919e+03
  1.804189e+01    1.588311e+03
  1.809501e+01    1.582511e+03
  1.814813e+01    1.580175e+03
  1.820125e+01    1.575579e+03
  1.825436e+01    1.579570e+03
  1.830748e+01    1.574674e+03
  1.836060e+01    1.568995e+03
  1.841372e+01    1.566189e+03
  1.846684e+01    1.561503e+03
  1.851995e+01    1.542599e+03
  1.857307e+01    1.528329e+03
  1.862619e+01    1.519207e+03
  1.867931e+01    1.516293e+03
  1.873243e+01    1.534837e+03
  1.878555e+01    1.536808e+03
  1.883866e+01    1.536226e+03
  1.889178e+01    1.535283e+03
  1.894490e+01    1.546658e+03
  1.899802e+01    1.536929e+03
  1.905114e+01    1.531569e+03
  1.910425e+01    1.526818e+03
  1.915737e+01    1.523741e+03
  1.921049e+01    1.518909e+03
  1.926361e+01    1.515798e+03
  1.931673e+01    1.512029e+03
  1.936985e+01    1.509405e+03
  1.942296e+01    1.506745e+03
  1.947608e+01    1.506637e+03
  1.952920e+01    1.502853e+03
  1.958232e+01    1.503236e+03
  1.963544e+01    1.509159e+03
  1.968855e+01    1.494071e+03
  1.974167e+01    1.482832e+03
  1.979479e+01    1.487339e+03
  1.984791e+01    1.486179e+03
  1.990103e+01    1.482794e+03
  1.995414e+01    1.482177e+03
  2.000726e+01    1.479436e+03
  2.006038e+01    1.474099e+03
  2.011350e+01    1.470709e+03
  2.016662e+01    1.465155e+03
  2.021974e+01    1.466916e+03
  2.027285e+01    1.474423e+03
  2.032597e+01    1.457463e+03
  2.037909e+01    1.454683e+03
  2.043221e+01    1.449007e+03
  2.048533e+01    1.447293e+03
  2.053844e+01    1.446512e+03
  2.059156e+01    1.441495e+03
  2.064468e+01    1.438163e+03
  2.069780e+01    1.418818e+03
  2.075092e+01    1.394786e+03
  2.080404e+01    1.381101e+03
  2.085715e+01    1.399639e+03
  2.091027e+01    1.425994e+03
  2.096339e+01    1.434044e+03
  2.101651e+01    1.438788e+03
  2.106963e+01    1.441518e+03
  2.112274e+01    1.445260e+03
  2.117586e+01    1.447746e+03
  2.122898e+01    1.448762e+03
  2.128210e+01    1.446984e+03
  2.133522e+01    1.446836e+03
  2.138834e+01    1.446236e+03
  2.144145e+01    1.445408e+03
  2.149457e+01    1.446156e+03
  2.154769e+01    1.445213e+03
  2.160081e+01    1.443645e+03
  2.165393e+01    1.445243e+03
  2.170704e+01    1.445104e+03
  2.176016e+01    1.434199e+03
  2.181328e+01    1.442891e+03
  2.186640e+01    1.444901e+03
  2.191952e+01    1.443291e+03
  2.197263e+01    1.440136e+03
  2.202575e+01    1.439198e+03
  2.207887e+01    1.439008e+03
  2.213199e+01    1.436395e+03
  2.218511e+01    1.435209e+03
  2.223823e+01    1.435000e+03
  2.229134e+01    1.433859e+03
  2.234446e+01    1.432181e+03
  2.239758e+01    1.432000e+03
  2.245070e+01    1.430248e+03
  2.250382e+01    1.431043e+03
  2.255693e+01    1.429059e+03
  2.261005e+01    1.409364e+03
  2.266317e+01    1.397800e+03
  2.271629e+01    1.388473e+03
  2.276941e+01    1.379501e+03
  2.282253e+01    1.371629e+03
  2.287564e+01    1.368663e+03
  2.292876e+01    1.362535e+03
  2.298188e+01    1.359896e+03
  2.303500e+01    1.359535e+03
  2.308812e+01    1.354187e+03
  2.314123e+01    1.354622e+03
  2.319435e+01    1.348432e+03
  2.324747e+01    1.343056e+03
  2.330059e+01    1.338188e+03
  2.335371e+01    1.335614e+03
  2.340683e+01    1.330992e+03
  2.345994e+01    1.327572e+03
  2.351306e+01    1.325327e+03
  2.356618e+01    1.320141e+03
  2.361930e+01    1.314593e+03
  2.367242e+01    1.308572e+03
  2.372553e+01    1.303187e+03
  2.377865e+01    1.298110e+03
  2.383177e+01    1.295151e+03
  2.388489e+01    1.290319e+03
  2.393801e+01    1.287148e+03
  2.399113e+01    1.285625e+03
  2.404424e+01    1.284088e+03
  2.409736e+01    1.283429e+03
  2.415048e+01    1.279615e+03
  2.420360e+01    1.275125e+03
  2.425672e+01    1.272276e+03
  2.430983e+01    1.268928e+03
  2.436295e+01    1.268249e+03
  2.441607e+01    1.265145e+03
  2.446919e+01    1.263416e+03
  2.452231e+01    1.262025e+03
  2.457542e+01    1.259429e+03
  2.462854e+01    1.255204e+03
  2.468166e+01    1.255042e+03
  2.473478e+01    1.250912e+03
  2.478790e+01    1.243094e+03
  2.484102e+01    1.239840e+03
  2.489413e+01    1.235343e+03
  2.494725e+01    1.232448e+03
  2.500037e+01    1.228718e+03
  2.505349e+01    1.223498e+03
  2.510661e+01    1.217785e+03
  2.515972e+01    1.217186e+03
  2.521284e+01    1.215327e+03
  2.526596e+01    1.216985e+03
  2.531908e+01    1.210834e+03
  2.537220e+01    1.208130e+03
  2.542532e+01    1.204291e+03
  2.547843e+01    1.204162e+03
  2.553155e+01    1.198547e+03
  2.558467e+01    1.192867e+03
  2.563779e+01    1.182575e+03
  2.569091e+01    1.180587e+03
  2.574402e+01    1.170166e+03
  2.579714e+01    1.166253e+03
  2.585026e+01    1.159869e+03
  2.590338e+01    1.151743e+03
  2.595650e+01    1.148319e+03
  2.600962e+01    1.149115e+03
  2.606273e+01    1.146916e+03
  2.611585e+01    1.142034e+03
  2.616897e+01    1.144442e+03
  2.622209e+01    1.142369e+03
  2.627521e+01    1.131430e+03
  2.632832e+01    1.124963e+03
  2.638144e+01    1.131909e+03
  2.643456e+01    1.121347e+03
  2.648768e+01    1.110510e+03
  2.654080e+01    1.108637e+03
