# == pyFAI calibration ==
# Distance Sample to Detector: 0.2946421923531691 m
# PONI: 2.875e-01, 2.439e-01 m
# Rotations: -0.010990 -0.009181 0.000003 rad
# 
# == Fit2d calibration ==
# Distance Sample-beamCenter: 294.672 mm
# Center: x=1436.809, y=1655.851 pix
# Tilt: 0.820 deg  TiltPlanRot: -39.874 deg
# 
# Detector Pilatus 2M	 PixelSize= 1.720e-04, 1.720e-04 m
#    Detector has a mask: True 
#    Detector has a dark current: False 
#    detector has a flat field: False 
# 
# Wavelength: 2.0732883349524408e-11 m
# Mask applied: from detector
# Dark current applied: False
# Flat field applied: False
# Polarization factor: None
# Normalization factor: 1.0
# --> /gpfs/current/raw/FMue_3/FMue_3_20231024_175355_00195.dat
#        q_A^-1             I 
  3.483473e-02             nan
  8.795289e-02             nan
  1.410711e-01             nan
  1.941892e-01             nan
  2.473074e-01             nan
  3.004255e-01             nan
  3.535437e-01             nan
  4.066619e-01    1.131878e+04
  4.597800e-01    1.039444e+04
  5.128982e-01    8.876760e+03
  5.660163e-01    8.104792e+03
  6.191345e-01    7.834946e+03
  6.722527e-01    7.744947e+03
  7.253708e-01    7.802672e+03
  7.784890e-01    7.861757e+03
  8.316071e-01    8.009776e+03
  8.847253e-01    8.149291e+03
  9.378435e-01    8.323788e+03
  9.909616e-01    8.554461e+03
  1.044080e+00    8.867470e+03
  1.097198e+00    9.299181e+03
  1.150316e+00    9.908777e+03
  1.203434e+00    1.061552e+04
  1.256552e+00    1.149568e+04
  1.309671e+00    1.267851e+04
  1.362789e+00    1.375942e+04
  1.415907e+00    1.420511e+04
  1.469025e+00    1.429236e+04
  1.522143e+00    1.418812e+04
  1.575261e+00    1.361491e+04
  1.628380e+00    1.288409e+04
  1.681498e+00    1.194708e+04
  1.734616e+00    1.098481e+04
  1.787734e+00    1.016217e+04
  1.840852e+00    9.453354e+03
  1.893970e+00    8.852559e+03
  1.947089e+00    8.454271e+03
  2.000207e+00    8.143083e+03
  2.053325e+00    8.038089e+03
  2.106443e+00    8.511067e+03
  2.159561e+00    9.630617e+03
  2.212679e+00    9.891322e+03
  2.265797e+00    9.321333e+03
  2.318916e+00    8.545096e+03
  2.372034e+00    7.835396e+03
  2.425152e+00    8.064523e+03
  2.478270e+00    9.527228e+03
  2.531388e+00    1.304640e+04
  2.584506e+00    1.410728e+04
  2.637625e+00    1.068109e+04
  2.690743e+00    8.463327e+03
  2.743861e+00    7.638235e+03
  2.796979e+00    6.379140e+03
  2.850097e+00    5.495153e+03
  2.903215e+00    5.195239e+03
  2.956334e+00    5.131673e+03
  3.009452e+00    5.472602e+03
  3.062570e+00    6.994985e+03
  3.115688e+00    9.276484e+03
  3.168806e+00    8.982454e+03
  3.221924e+00    7.238890e+03
  3.275043e+00    5.708838e+03
  3.328161e+00    4.872513e+03
  3.381279e+00    4.644626e+03
  3.434397e+00    4.655836e+03
  3.487515e+00    4.738373e+03
  3.540633e+00    4.660200e+03
  3.593751e+00    4.584369e+03
  3.646870e+00    4.643794e+03
  3.699988e+00    4.812225e+03
  3.753106e+00    5.142560e+03
  3.806224e+00    5.384241e+03
  3.859342e+00    5.381262e+03
  3.912460e+00    5.620681e+03
  3.965579e+00    6.499451e+03
  4.018697e+00    7.498755e+03
  4.071815e+00    7.455605e+03
  4.124933e+00    6.790212e+03
  4.178051e+00    6.348188e+03
  4.231169e+00    6.190844e+03
  4.284288e+00    6.578761e+03
  4.337406e+00    8.288434e+03
  4.390524e+00    1.052589e+04
  4.443642e+00    1.200179e+04
  4.496760e+00    1.215679e+04
  4.549878e+00    8.486713e+03
  4.602997e+00    5.886102e+03
  4.656115e+00    5.261076e+03
  4.709233e+00    5.062362e+03
  4.762351e+00    5.010111e+03
  4.815469e+00    5.070790e+03
  4.868587e+00    5.204308e+03
  4.921705e+00    5.277145e+03
  4.974824e+00    5.352306e+03
  5.027942e+00    5.514350e+03
  5.081060e+00    5.717118e+03
  5.134178e+00    5.505237e+03
  5.187296e+00    5.047564e+03
  5.240414e+00    4.659865e+03
  5.293533e+00    4.462577e+03
  5.346651e+00    4.379290e+03
  5.399769e+00    4.296150e+03
  5.452887e+00    4.257457e+03
  5.506005e+00    4.136183e+03
  5.559123e+00    3.782307e+03
  5.612242e+00    3.609499e+03
  5.665360e+00    3.569273e+03
  5.718478e+00    3.560757e+03
  5.771596e+00    3.625220e+03
  5.824714e+00    3.712549e+03
  5.877832e+00    3.884758e+03
  5.930951e+00    4.168317e+03
  5.984069e+00    4.187951e+03
  6.037187e+00    3.952465e+03
  6.090305e+00    3.776611e+03
  6.143423e+00    3.753266e+03
  6.196541e+00    3.907445e+03
  6.249660e+00    4.019078e+03
  6.302778e+00    3.878007e+03
  6.355896e+00    3.618901e+03
  6.409014e+00    3.524323e+03
  6.462132e+00    3.460611e+03
  6.515250e+00    3.420306e+03
  6.568368e+00    3.451814e+03
  6.621487e+00    3.522591e+03
  6.674605e+00    3.646401e+03
  6.727723e+00    3.696476e+03
  6.780841e+00    3.521406e+03
  6.833959e+00    3.331802e+03
  6.887077e+00    3.242242e+03
  6.940196e+00    3.219037e+03
  6.993314e+00    3.240542e+03
  7.046432e+00    3.240943e+03
  7.099550e+00    3.171563e+03
  7.152668e+00    3.109894e+03
  7.205786e+00    3.066757e+03
  7.258905e+00    3.057440e+03
  7.312023e+00    3.124377e+03
  7.365141e+00    3.227842e+03
  7.418259e+00    3.270162e+03
  7.471377e+00    3.262017e+03
  7.524495e+00    3.341156e+03
  7.577614e+00    3.490750e+03
  7.630732e+00    3.509178e+03
  7.683850e+00    3.525635e+03
  7.736968e+00    3.596185e+03
  7.790086e+00    3.499596e+03
  7.843204e+00    3.331115e+03
  7.896322e+00    3.212779e+03
  7.949441e+00    3.181756e+03
  8.002559e+00    3.192924e+03
  8.055677e+00    3.151620e+03
  8.108795e+00    3.068832e+03
  8.161913e+00    3.017348e+03
  8.215031e+00    2.971582e+03
  8.268150e+00    2.932416e+03
  8.321268e+00    2.893996e+03
  8.374386e+00    2.874061e+03
  8.427504e+00    2.856216e+03
  8.480622e+00    2.846715e+03
  8.533740e+00    2.806672e+03
  8.586859e+00    2.838306e+03
  8.639977e+00    2.824544e+03
  8.693095e+00    2.813731e+03
  8.746213e+00    2.826033e+03
  8.799331e+00    2.812608e+03
  8.852449e+00    2.787682e+03
  8.905568e+00    2.786505e+03
  8.958686e+00    2.789811e+03
  9.011804e+00    2.785546e+03
  9.064922e+00    2.742033e+03
  9.118040e+00    2.715390e+03
  9.171158e+00    2.694667e+03
  9.224276e+00    2.648602e+03
  9.277395e+00    2.597357e+03
  9.330513e+00    2.569698e+03
  9.383631e+00    2.542756e+03
  9.436749e+00    2.530644e+03
  9.489867e+00    2.546871e+03
  9.542985e+00    2.557300e+03
  9.596104e+00    2.558759e+03
  9.649222e+00    2.568957e+03
  9.702340e+00    2.557008e+03
  9.755458e+00    2.541759e+03
  9.808576e+00    2.535563e+03
  9.861694e+00    2.531950e+03
  9.914813e+00    2.518829e+03
  9.967931e+00    2.494161e+03
  1.002105e+01    2.470381e+03
  1.007417e+01    2.452577e+03
  1.012729e+01    2.434259e+03
  1.018040e+01    2.417051e+03
  1.023352e+01    2.376138e+03
  1.028664e+01    2.340406e+03
  1.033976e+01    2.323530e+03
  1.039288e+01    2.345296e+03
  1.044599e+01    2.334683e+03
  1.049911e+01    2.339722e+03
  1.055223e+01    2.330674e+03
  1.060535e+01    2.332336e+03
  1.065847e+01    2.320378e+03
  1.071158e+01    2.309954e+03
  1.076470e+01    2.299262e+03
  1.081782e+01    2.294689e+03
  1.087094e+01    2.286478e+03
  1.092406e+01    2.301366e+03
  1.097718e+01    2.308181e+03
  1.103029e+01    2.308608e+03
  1.108341e+01    2.296285e+03
  1.113653e+01    2.273410e+03
  1.118965e+01    2.252972e+03
  1.124277e+01    2.240621e+03
  1.129588e+01    2.235385e+03
  1.134900e+01    2.232443e+03
  1.140212e+01    2.240179e+03
  1.145524e+01    2.241078e+03
  1.150836e+01    2.253482e+03
  1.156148e+01    2.249674e+03
  1.161459e+01    2.248635e+03
  1.166771e+01    2.228045e+03
  1.172083e+01    2.228769e+03
  1.177395e+01    2.210500e+03
  1.182707e+01    2.203994e+03
  1.188018e+01    2.205360e+03
  1.193330e+01    2.189146e+03
  1.198642e+01    2.168552e+03
  1.203954e+01    2.151260e+03
  1.209266e+01    2.146850e+03
  1.214578e+01    2.139160e+03
  1.219889e+01    2.148370e+03
  1.225201e+01    2.151115e+03
  1.230513e+01    2.142949e+03
  1.235825e+01    2.137906e+03
  1.241137e+01    2.122239e+03
  1.246448e+01    2.119290e+03
  1.251760e+01    2.116111e+03
  1.257072e+01    2.109735e+03
  1.262384e+01    2.118120e+03
  1.267696e+01    2.104717e+03
  1.273008e+01    2.088172e+03
  1.278319e+01    2.078512e+03
  1.283631e+01    2.067478e+03
  1.288943e+01    2.061531e+03
  1.294255e+01    2.050521e+03
  1.299567e+01    2.045716e+03
  1.304878e+01    2.042202e+03
  1.310190e+01    2.038820e+03
  1.315502e+01    2.034159e+03
  1.320814e+01    2.014338e+03
  1.326126e+01    1.988832e+03
  1.331437e+01    1.980292e+03
  1.336749e+01    1.976223e+03
  1.342061e+01    1.963109e+03
  1.347373e+01    1.984151e+03
  1.352685e+01    1.980961e+03
  1.357997e+01    1.968295e+03
  1.363308e+01    1.957749e+03
  1.368620e+01    1.953197e+03
  1.373932e+01    1.945709e+03
  1.379244e+01    1.939306e+03
  1.384556e+01    1.930788e+03
  1.389867e+01    1.922923e+03
  1.395179e+01    1.913111e+03
  1.400491e+01    1.911158e+03
  1.405803e+01    1.908606e+03
  1.411115e+01    1.901190e+03
  1.416427e+01    1.892318e+03
  1.421738e+01    1.885558e+03
  1.427050e+01    1.877407e+03
  1.432362e+01    1.881401e+03
  1.437674e+01    1.877407e+03
  1.442986e+01    1.866153e+03
  1.448297e+01    1.859322e+03
  1.453609e+01    1.851913e+03
  1.458921e+01    1.843128e+03
  1.464233e+01    1.838180e+03
  1.469545e+01    1.833792e+03
  1.474857e+01    1.812963e+03
  1.480168e+01    1.823617e+03
  1.485480e+01    1.820104e+03
  1.490792e+01    1.813427e+03
  1.496104e+01    1.808296e+03
  1.501416e+01    1.805159e+03
  1.506727e+01    1.801596e+03
  1.512039e+01    1.798481e+03
  1.517351e+01    1.811144e+03
  1.522663e+01    1.825025e+03
  1.527975e+01    1.821570e+03
  1.533286e+01    1.807617e+03
  1.538598e+01    1.797758e+03
  1.543910e+01    1.789637e+03
  1.549222e+01    1.783375e+03
  1.554534e+01    1.785060e+03
  1.559846e+01    1.781050e+03
  1.565157e+01    1.774255e+03
  1.570469e+01    1.769235e+03
  1.575781e+01    1.766937e+03
  1.581093e+01    1.763365e+03
  1.586405e+01    1.760271e+03
  1.591716e+01    1.754020e+03
  1.597028e+01    1.749076e+03
  1.602340e+01    1.733420e+03
  1.607652e+01    1.722650e+03
  1.612964e+01    1.698935e+03
  1.618276e+01    1.686628e+03
  1.623587e+01    1.688350e+03
  1.628899e+01    1.703891e+03
  1.634211e+01    1.702038e+03
  1.639523e+01    1.696517e+03
  1.644835e+01    1.699815e+03
  1.650146e+01    1.691988e+03
  1.655458e+01    1.690867e+03
  1.660770e+01    1.687483e+03
  1.666082e+01    1.682898e+03
  1.671394e+01    1.682047e+03
  1.676706e+01    1.676311e+03
  1.682017e+01    1.688348e+03
  1.687329e+01    1.678381e+03
  1.692641e+01    1.670480e+03
  1.697953e+01    1.666743e+03
  1.703265e+01    1.663902e+03
  1.708576e+01    1.661424e+03
  1.713888e+01    1.653655e+03
  1.719200e+01    1.650941e+03
  1.724512e+01    1.643382e+03
  1.729824e+01    1.645573e+03
  1.735136e+01    1.637694e+03
  1.740447e+01    1.615744e+03
  1.745759e+01    1.625340e+03
  1.751071e+01    1.625772e+03
  1.756383e+01    1.635895e+03
  1.761695e+01    1.621316e+03
  1.767006e+01    1.618497e+03
  1.772318e+01    1.609635e+03
  1.777630e+01    1.608327e+03
  1.782942e+01    1.600654e+03
  1.788254e+01    1.595700e+03
  1.793565e+01    1.593335e+03
  1.798877e+01    1.590606e+03
  1.804189e+01    1.583585e+03
  1.809501e+01    1.579852e+03
  1.814813e+01    1.576357e+03
  1.820125e+01    1.571629e+03
  1.825436e+01    1.576529e+03
  1.830748e+01    1.570986e+03
  1.836060e+01    1.566437e+03
  1.841372e+01    1.564086e+03
  1.846684e+01    1.558264e+03
  1.851995e+01    1.539999e+03
  1.857307e+01    1.525482e+03
  1.862619e+01    1.515445e+03
  1.867931e+01    1.512763e+03
  1.873243e+01    1.531857e+03
  1.878555e+01    1.534060e+03
  1.883866e+01    1.532547e+03
  1.889178e+01    1.531729e+03
  1.894490e+01    1.543377e+03
  1.899802e+01    1.533521e+03
  1.905114e+01    1.530110e+03
  1.910425e+01    1.523880e+03
  1.915737e+01    1.520604e+03
  1.921049e+01    1.516204e+03
  1.926361e+01    1.512903e+03
  1.931673e+01    1.509854e+03
  1.936985e+01    1.507232e+03
  1.942296e+01    1.503569e+03
  1.947608e+01    1.503671e+03
  1.952920e+01    1.499821e+03
  1.958232e+01    1.499229e+03
  1.963544e+01    1.505572e+03
  1.968855e+01    1.492203e+03
  1.974167e+01    1.480118e+03
  1.979479e+01    1.485423e+03
  1.984791e+01    1.482434e+03
  1.990103e+01    1.481030e+03
  1.995414e+01    1.479568e+03
  2.000726e+01    1.476561e+03
  2.006038e+01    1.471855e+03
  2.011350e+01    1.468517e+03
  2.016662e+01    1.461331e+03
  2.021974e+01    1.464933e+03
  2.027285e+01    1.471434e+03
  2.032597e+01    1.455426e+03
  2.037909e+01    1.451159e+03
  2.043221e+01    1.445484e+03
  2.048533e+01    1.444490e+03
  2.053844e+01    1.443919e+03
  2.059156e+01    1.438776e+03
  2.064468e+01    1.435683e+03
  2.069780e+01    1.416312e+03
  2.075092e+01    1.392997e+03
  2.080404e+01    1.379047e+03
  2.085715e+01    1.396907e+03
  2.091027e+01    1.423035e+03
  2.096339e+01    1.431363e+03
  2.101651e+01    1.436433e+03
  2.106963e+01    1.439783e+03
  2.112274e+01    1.442693e+03
  2.117586e+01    1.444573e+03
  2.122898e+01    1.447101e+03
  2.128210e+01    1.444309e+03
  2.133522e+01    1.446178e+03
  2.138834e+01    1.443252e+03
  2.144145e+01    1.442915e+03
  2.149457e+01    1.443323e+03
  2.154769e+01    1.442517e+03
  2.160081e+01    1.441401e+03
  2.165393e+01    1.442998e+03
  2.170704e+01    1.442137e+03
  2.176016e+01    1.432103e+03
  2.181328e+01    1.441327e+03
  2.186640e+01    1.442625e+03
  2.191952e+01    1.440758e+03
  2.197263e+01    1.439069e+03
  2.202575e+01    1.437911e+03
  2.207887e+01    1.435997e+03
  2.213199e+01    1.435301e+03
  2.218511e+01    1.433379e+03
  2.223823e+01    1.433402e+03
  2.229134e+01    1.431039e+03
  2.234446e+01    1.430552e+03
  2.239758e+01    1.431584e+03
  2.245070e+01    1.426861e+03
  2.250382e+01    1.428924e+03
  2.255693e+01    1.425444e+03
  2.261005e+01    1.407357e+03
  2.266317e+01    1.395515e+03
  2.271629e+01    1.386824e+03
  2.276941e+01    1.376829e+03
  2.282253e+01    1.369590e+03
  2.287564e+01    1.365404e+03
  2.292876e+01    1.360758e+03
  2.298188e+01    1.359080e+03
  2.303500e+01    1.355878e+03
  2.308812e+01    1.353417e+03
  2.314123e+01    1.350659e+03
  2.319435e+01    1.346343e+03
  2.324747e+01    1.339591e+03
  2.330059e+01    1.336817e+03
  2.335371e+01    1.334183e+03
  2.340683e+01    1.329469e+03
  2.345994e+01    1.325591e+03
  2.351306e+01    1.322366e+03
  2.356618e+01    1.317458e+03
  2.361930e+01    1.312285e+03
  2.367242e+01    1.308426e+03
  2.372553e+01    1.302041e+03
  2.377865e+01    1.296920e+03
  2.383177e+01    1.292069e+03
  2.388489e+01    1.287236e+03
  2.393801e+01    1.283395e+03
  2.399113e+01    1.284307e+03
  2.404424e+01    1.283697e+03
  2.409736e+01    1.282856e+03
  2.415048e+01    1.276137e+03
  2.420360e+01    1.274335e+03
  2.425672e+01    1.270951e+03
  2.430983e+01    1.267575e+03
  2.436295e+01    1.264223e+03
  2.441607e+01    1.262901e+03
  2.446919e+01    1.261207e+03
  2.452231e+01    1.258350e+03
  2.457542e+01    1.257449e+03
  2.462854e+01    1.253942e+03
  2.468166e+01    1.253683e+03
  2.473478e+01    1.246813e+03
  2.478790e+01    1.241446e+03
  2.484102e+01    1.237667e+03
  2.489413e+01    1.233778e+03
  2.494725e+01    1.227245e+03
  2.500037e+01    1.223199e+03
  2.505349e+01    1.217322e+03
  2.510661e+01    1.214610e+03
  2.515972e+01    1.213971e+03
  2.521284e+01    1.212126e+03
  2.526596e+01    1.211128e+03
  2.531908e+01    1.206765e+03
  2.537220e+01    1.205900e+03
  2.542532e+01    1.203170e+03
  2.547843e+01    1.200298e+03
  2.553155e+01    1.194364e+03
  2.558467e+01    1.189888e+03
  2.563779e+01    1.177857e+03
  2.569091e+01    1.178244e+03
  2.574402e+01    1.169119e+03
  2.579714e+01    1.162370e+03
  2.585026e+01    1.153048e+03
  2.590338e+01    1.150025e+03
  2.595650e+01    1.147686e+03
  2.600962e+01    1.146550e+03
  2.606273e+01    1.146406e+03
  2.611585e+01    1.143843e+03
  2.616897e+01    1.140508e+03
  2.622209e+01    1.144499e+03
  2.627521e+01    1.137653e+03
  2.632832e+01    1.132778e+03
  2.638144e+01    1.129276e+03
  2.643456e+01    1.123183e+03
  2.648768e+01    1.100365e+03
  2.654080e+01    1.094480e+03
