# == pyFAI calibration ==
# Distance Sample to Detector: 0.2946421923531691 m
# PONI: 2.875e-01, 2.439e-01 m
# Rotations: -0.010990 -0.009181 0.000003 rad
# 
# == Fit2d calibration ==
# Distance Sample-beamCenter: 294.672 mm
# Center: x=1436.809, y=1655.851 pix
# Tilt: 0.820 deg  TiltPlanRot: -39.874 deg
# 
# Detector Pilatus 2M	 PixelSize= 1.720e-04, 1.720e-04 m
#    Detector has a mask: True 
#    Detector has a dark current: False 
#    detector has a flat field: False 
# 
# Wavelength: 2.0732883349524408e-11 m
# Mask applied: from detector
# Dark current applied: False
# Flat field applied: False
# Polarization factor: None
# Normalization factor: 1.0
# --> /gpfs/current/raw/FMue_3/FMue_3_20231024_175355_00210.dat
#        q_A^-1             I 
  3.483473e-02             nan
  8.795289e-02             nan
  1.410711e-01             nan
  1.941892e-01             nan
  2.473074e-01             nan
  3.004255e-01             nan
  3.535437e-01             nan
  4.066619e-01    1.117670e+04
  4.597800e-01    1.029472e+04
  5.128982e-01    8.806830e+03
  5.660163e-01    8.054016e+03
  6.191345e-01    7.790008e+03
  6.722527e-01    7.711129e+03
  7.253708e-01    7.772417e+03
  7.784890e-01    7.832183e+03
  8.316071e-01    7.992290e+03
  8.847253e-01    8.120845e+03
  9.378435e-01    8.301065e+03
  9.909616e-01    8.525610e+03
  1.044080e+00    8.835476e+03
  1.097198e+00    9.274171e+03
  1.150316e+00    9.881387e+03
  1.203434e+00    1.058673e+04
  1.256552e+00    1.147020e+04
  1.309671e+00    1.264083e+04
  1.362789e+00    1.372859e+04
  1.415907e+00    1.416599e+04
  1.469025e+00    1.428802e+04
  1.522143e+00    1.416019e+04
  1.575261e+00    1.357655e+04
  1.628380e+00    1.284873e+04
  1.681498e+00    1.191449e+04
  1.734616e+00    1.096545e+04
  1.787734e+00    1.013917e+04
  1.840852e+00    9.424288e+03
  1.893970e+00    8.828380e+03
  1.947089e+00    8.421515e+03
  2.000207e+00    8.116065e+03
  2.053325e+00    8.012774e+03
  2.106443e+00    8.494693e+03
  2.159561e+00    9.646247e+03
  2.212679e+00    9.914656e+03
  2.265797e+00    9.300010e+03
  2.318916e+00    8.514403e+03
  2.372034e+00    7.797679e+03
  2.425152e+00    8.021823e+03
  2.478270e+00    9.480624e+03
  2.531388e+00    1.307587e+04
  2.584506e+00    1.417613e+04
  2.637625e+00    1.065668e+04
  2.690743e+00    8.423269e+03
  2.743861e+00    7.604956e+03
  2.796979e+00    6.360920e+03
  2.850097e+00    5.484891e+03
  2.903215e+00    5.181781e+03
  2.956334e+00    5.107845e+03
  3.009452e+00    5.444802e+03
  3.062570e+00    6.965043e+03
  3.115688e+00    9.246357e+03
  3.168806e+00    8.953310e+03
  3.221924e+00    7.220928e+03
  3.275043e+00    5.699565e+03
  3.328161e+00    4.862036e+03
  3.381279e+00    4.629592e+03
  3.434397e+00    4.638726e+03
  3.487515e+00    4.725304e+03
  3.540633e+00    4.644111e+03
  3.593751e+00    4.567856e+03
  3.646870e+00    4.625046e+03
  3.699988e+00    4.802120e+03
  3.753106e+00    5.133660e+03
  3.806224e+00    5.379459e+03
  3.859342e+00    5.366914e+03
  3.912460e+00    5.592788e+03
  3.965579e+00    6.484419e+03
  4.018697e+00    7.520479e+03
  4.071815e+00    7.448302e+03
  4.124933e+00    6.758092e+03
  4.178051e+00    6.318773e+03
  4.231169e+00    6.171382e+03
  4.284288e+00    6.551244e+03
  4.337406e+00    8.281250e+03
  4.390524e+00    1.054166e+04
  4.443642e+00    1.196174e+04
  4.496760e+00    1.211494e+04
  4.549878e+00    8.463811e+03
  4.602997e+00    5.869919e+03
  4.656115e+00    5.245471e+03
  4.709233e+00    5.043217e+03
  4.762351e+00    4.992816e+03
  4.815469e+00    5.056097e+03
  4.868587e+00    5.193479e+03
  4.921705e+00    5.264889e+03
  4.974824e+00    5.334723e+03
  5.027942e+00    5.506992e+03
  5.081060e+00    5.710055e+03
  5.134178e+00    5.499236e+03
  5.187296e+00    5.033449e+03
  5.240414e+00    4.648727e+03
  5.293533e+00    4.446738e+03
  5.346651e+00    4.367691e+03
  5.399769e+00    4.283566e+03
  5.452887e+00    4.243774e+03
  5.506005e+00    4.123371e+03
  5.559123e+00    3.770377e+03
  5.612242e+00    3.596456e+03
  5.665360e+00    3.560235e+03
  5.718478e+00    3.553067e+03
  5.771596e+00    3.617533e+03
  5.824714e+00    3.706895e+03
  5.877832e+00    3.877480e+03
  5.930951e+00    4.172947e+03
  5.984069e+00    4.185433e+03
  6.037187e+00    3.943754e+03
  6.090305e+00    3.764646e+03
  6.143423e+00    3.742261e+03
  6.196541e+00    3.898642e+03
  6.249660e+00    4.008659e+03
  6.302778e+00    3.870220e+03
  6.355896e+00    3.608901e+03
  6.409014e+00    3.513906e+03
  6.462132e+00    3.450922e+03
  6.515250e+00    3.411615e+03
  6.568368e+00    3.442818e+03
  6.621487e+00    3.510075e+03
  6.674605e+00    3.643620e+03
  6.727723e+00    3.697876e+03
  6.780841e+00    3.518171e+03
  6.833959e+00    3.321350e+03
  6.887077e+00    3.233558e+03
  6.940196e+00    3.210579e+03
  6.993314e+00    3.230852e+03
  7.046432e+00    3.233104e+03
  7.099550e+00    3.161288e+03
  7.152668e+00    3.102459e+03
  7.205786e+00    3.057218e+03
  7.258905e+00    3.051306e+03
  7.312023e+00    3.119603e+03
  7.365141e+00    3.224650e+03
  7.418259e+00    3.263933e+03
  7.471377e+00    3.253769e+03
  7.524495e+00    3.331972e+03
  7.577614e+00    3.487721e+03
  7.630732e+00    3.507190e+03
  7.683850e+00    3.514324e+03
  7.736968e+00    3.587473e+03
  7.790086e+00    3.492232e+03
  7.843204e+00    3.325234e+03
  7.896322e+00    3.208665e+03
  7.949441e+00    3.176228e+03
  8.002559e+00    3.189365e+03
  8.055677e+00    3.147230e+03
  8.108795e+00    3.062267e+03
  8.161913e+00    3.012975e+03
  8.215031e+00    2.965932e+03
  8.268150e+00    2.921723e+03
  8.321268e+00    2.890079e+03
  8.374386e+00    2.865961e+03
  8.427504e+00    2.849627e+03
  8.480622e+00    2.842063e+03
  8.533740e+00    2.800074e+03
  8.586859e+00    2.836583e+03
  8.639977e+00    2.818605e+03
  8.693095e+00    2.808863e+03
  8.746213e+00    2.822738e+03
  8.799331e+00    2.805467e+03
  8.852449e+00    2.778125e+03
  8.905568e+00    2.779781e+03
  8.958686e+00    2.783154e+03
  9.011804e+00    2.778645e+03
  9.064922e+00    2.737122e+03
  9.118040e+00    2.713000e+03
  9.171158e+00    2.690340e+03
  9.224276e+00    2.642858e+03
  9.277395e+00    2.590413e+03
  9.330513e+00    2.561388e+03
  9.383631e+00    2.536219e+03
  9.436749e+00    2.525305e+03
  9.489867e+00    2.541991e+03
  9.542985e+00    2.553609e+03
  9.596104e+00    2.555132e+03
  9.649222e+00    2.563340e+03
  9.702340e+00    2.553115e+03
  9.755458e+00    2.538395e+03
  9.808576e+00    2.532555e+03
  9.861694e+00    2.527149e+03
  9.914813e+00    2.512584e+03
  9.967931e+00    2.490206e+03
  1.002105e+01    2.464970e+03
  1.007417e+01    2.448031e+03
  1.012729e+01    2.433212e+03
  1.018040e+01    2.411750e+03
  1.023352e+01    2.369545e+03
  1.028664e+01    2.333710e+03
  1.033976e+01    2.317621e+03
  1.039288e+01    2.339590e+03
  1.044599e+01    2.330519e+03
  1.049911e+01    2.335000e+03
  1.055223e+01    2.325768e+03
  1.060535e+01    2.327263e+03
  1.065847e+01    2.314033e+03
  1.071158e+01    2.305120e+03
  1.076470e+01    2.293246e+03
  1.081782e+01    2.291756e+03
  1.087094e+01    2.283813e+03
  1.092406e+01    2.296154e+03
  1.097718e+01    2.304608e+03
  1.103029e+01    2.305119e+03
  1.108341e+01    2.291232e+03
  1.113653e+01    2.269748e+03
  1.118965e+01    2.249249e+03
  1.124277e+01    2.234573e+03
  1.129588e+01    2.229493e+03
  1.134900e+01    2.226376e+03
  1.140212e+01    2.232246e+03
  1.145524e+01    2.238250e+03
  1.150836e+01    2.247171e+03
  1.156148e+01    2.244312e+03
  1.161459e+01    2.244510e+03
  1.166771e+01    2.221411e+03
  1.172083e+01    2.222279e+03
  1.177395e+01    2.205934e+03
  1.182707e+01    2.198853e+03
  1.188018e+01    2.201154e+03
  1.193330e+01    2.186568e+03
  1.198642e+01    2.164625e+03
  1.203954e+01    2.144944e+03
  1.209266e+01    2.141390e+03
  1.214578e+01    2.135751e+03
  1.219889e+01    2.143935e+03
  1.225201e+01    2.146664e+03
  1.230513e+01    2.138314e+03
  1.235825e+01    2.133773e+03
  1.241137e+01    2.116762e+03
  1.246448e+01    2.115487e+03
  1.251760e+01    2.111514e+03
  1.257072e+01    2.106973e+03
  1.262384e+01    2.113964e+03
  1.267696e+01    2.099864e+03
  1.273008e+01    2.082666e+03
  1.278319e+01    2.074397e+03
  1.283631e+01    2.062186e+03
  1.288943e+01    2.057290e+03
  1.294255e+01    2.046348e+03
  1.299567e+01    2.043001e+03
  1.304878e+01    2.036864e+03
  1.310190e+01    2.034666e+03
  1.315502e+01    2.031502e+03
  1.320814e+01    2.007743e+03
  1.326126e+01    1.983624e+03
  1.331437e+01    1.976926e+03
  1.336749e+01    1.970606e+03
  1.342061e+01    1.957982e+03
  1.347373e+01    1.979106e+03
  1.352685e+01    1.976378e+03
  1.357997e+01    1.964758e+03
  1.363308e+01    1.954032e+03
  1.368620e+01    1.947368e+03
  1.373932e+01    1.939989e+03
  1.379244e+01    1.937248e+03
  1.384556e+01    1.926276e+03
  1.389867e+01    1.918618e+03
  1.395179e+01    1.910223e+03
  1.400491e+01    1.906568e+03
  1.405803e+01    1.904778e+03
  1.411115e+01    1.898086e+03
  1.416427e+01    1.888357e+03
  1.421738e+01    1.882104e+03
  1.427050e+01    1.874922e+03
  1.432362e+01    1.875108e+03
  1.437674e+01    1.873271e+03
  1.442986e+01    1.861986e+03
  1.448297e+01    1.856362e+03
  1.453609e+01    1.848249e+03
  1.458921e+01    1.838739e+03
  1.464233e+01    1.835167e+03
  1.469545e+01    1.828959e+03
  1.474857e+01    1.808797e+03
  1.480168e+01    1.819921e+03
  1.485480e+01    1.815964e+03
  1.490792e+01    1.811824e+03
  1.496104e+01    1.803866e+03
  1.501416e+01    1.802154e+03
  1.506727e+01    1.798973e+03
  1.512039e+01    1.795388e+03
  1.517351e+01    1.807931e+03
  1.522663e+01    1.821398e+03
  1.527975e+01    1.818906e+03
  1.533286e+01    1.803495e+03
  1.538598e+01    1.794030e+03
  1.543910e+01    1.786005e+03
  1.549222e+01    1.781026e+03
  1.554534e+01    1.779568e+03
  1.559846e+01    1.777480e+03
  1.565157e+01    1.771916e+03
  1.570469e+01    1.766830e+03
  1.575781e+01    1.763253e+03
  1.581093e+01    1.759002e+03
  1.586405e+01    1.757794e+03
  1.591716e+01    1.749676e+03
  1.597028e+01    1.744395e+03
  1.602340e+01    1.730674e+03
  1.607652e+01    1.719161e+03
  1.612964e+01    1.694088e+03
  1.618276e+01    1.682844e+03
  1.623587e+01    1.685218e+03
  1.628899e+01    1.700637e+03
  1.634211e+01    1.698317e+03
  1.639523e+01    1.692092e+03
  1.644835e+01    1.695186e+03
  1.650146e+01    1.690044e+03
  1.655458e+01    1.688671e+03
  1.660770e+01    1.683715e+03
  1.666082e+01    1.678676e+03
  1.671394e+01    1.678925e+03
  1.676706e+01    1.673748e+03
  1.682017e+01    1.684149e+03
  1.687329e+01    1.675109e+03
  1.692641e+01    1.668658e+03
  1.697953e+01    1.664325e+03
  1.703265e+01    1.659164e+03
  1.708576e+01    1.658631e+03
  1.713888e+01    1.650164e+03
  1.719200e+01    1.649085e+03
  1.724512e+01    1.640885e+03
  1.729824e+01    1.640825e+03
  1.735136e+01    1.635067e+03
  1.740447e+01    1.613418e+03
  1.745759e+01    1.621515e+03
  1.751071e+01    1.621998e+03
  1.756383e+01    1.633617e+03
  1.761695e+01    1.617352e+03
  1.767006e+01    1.616364e+03
  1.772318e+01    1.605528e+03
  1.777630e+01    1.605434e+03
  1.782942e+01    1.596618e+03
  1.788254e+01    1.593413e+03
  1.793565e+01    1.590505e+03
  1.798877e+01    1.587535e+03
  1.804189e+01    1.580104e+03
  1.809501e+01    1.577222e+03
  1.814813e+01    1.574128e+03
  1.820125e+01    1.568415e+03
  1.825436e+01    1.573453e+03
  1.830748e+01    1.566099e+03
  1.836060e+01    1.562407e+03
  1.841372e+01    1.560797e+03
  1.846684e+01    1.555907e+03
  1.851995e+01    1.535874e+03
  1.857307e+01    1.522040e+03
  1.862619e+01    1.512937e+03
  1.867931e+01    1.510275e+03
  1.873243e+01    1.528958e+03
  1.878555e+01    1.530553e+03
  1.883866e+01    1.529661e+03
  1.889178e+01    1.529004e+03
  1.894490e+01    1.539599e+03
  1.899802e+01    1.530076e+03
  1.905114e+01    1.526179e+03
  1.910425e+01    1.520552e+03
  1.915737e+01    1.517591e+03
  1.921049e+01    1.512605e+03
  1.926361e+01    1.508006e+03
  1.931673e+01    1.505598e+03
  1.936985e+01    1.503210e+03
  1.942296e+01    1.501819e+03
  1.947608e+01    1.501992e+03
  1.952920e+01    1.497358e+03
  1.958232e+01    1.496971e+03
  1.963544e+01    1.501916e+03
  1.968855e+01    1.488522e+03
  1.974167e+01    1.477561e+03
  1.979479e+01    1.481095e+03
  1.984791e+01    1.478461e+03
  1.990103e+01    1.477545e+03
  1.995414e+01    1.474918e+03
  2.000726e+01    1.473513e+03
  2.006038e+01    1.468817e+03
  2.011350e+01    1.464955e+03
  2.016662e+01    1.459984e+03
  2.021974e+01    1.462252e+03
  2.027285e+01    1.468743e+03
  2.032597e+01    1.452700e+03
  2.037909e+01    1.448553e+03
  2.043221e+01    1.443194e+03
  2.048533e+01    1.441060e+03
  2.053844e+01    1.441665e+03
  2.059156e+01    1.435552e+03
  2.064468e+01    1.432237e+03
  2.069780e+01    1.413858e+03
  2.075092e+01    1.391540e+03
  2.080404e+01    1.375752e+03
  2.085715e+01    1.394215e+03
  2.091027e+01    1.420725e+03
  2.096339e+01    1.427470e+03
  2.101651e+01    1.433246e+03
  2.106963e+01    1.436398e+03
  2.112274e+01    1.438526e+03
  2.117586e+01    1.440955e+03
  2.122898e+01    1.442941e+03
  2.128210e+01    1.441713e+03
  2.133522e+01    1.441682e+03
  2.138834e+01    1.440926e+03
  2.144145e+01    1.439848e+03
  2.149457e+01    1.439835e+03
  2.154769e+01    1.438655e+03
  2.160081e+01    1.439211e+03
  2.165393e+01    1.439416e+03
  2.170704e+01    1.439610e+03
  2.176016e+01    1.430246e+03
  2.181328e+01    1.438438e+03
  2.186640e+01    1.439622e+03
  2.191952e+01    1.436639e+03
  2.197263e+01    1.434917e+03
  2.202575e+01    1.434010e+03
  2.207887e+01    1.433108e+03
  2.213199e+01    1.431499e+03
  2.218511e+01    1.430052e+03
  2.223823e+01    1.429648e+03
  2.229134e+01    1.427453e+03
  2.234446e+01    1.426478e+03
  2.239758e+01    1.427734e+03
  2.245070e+01    1.423306e+03
  2.250382e+01    1.424626e+03
  2.255693e+01    1.422212e+03
  2.261005e+01    1.404638e+03
  2.266317e+01    1.392514e+03
  2.271629e+01    1.383057e+03
  2.276941e+01    1.373748e+03
  2.282253e+01    1.366421e+03
  2.287564e+01    1.362966e+03
  2.292876e+01    1.358653e+03
  2.298188e+01    1.355088e+03
  2.303500e+01    1.352336e+03
  2.308812e+01    1.349534e+03
  2.314123e+01    1.347333e+03
  2.319435e+01    1.343862e+03
  2.324747e+01    1.336285e+03
  2.330059e+01    1.332299e+03
  2.335371e+01    1.329475e+03
  2.340683e+01    1.325289e+03
  2.345994e+01    1.321387e+03
  2.351306e+01    1.320186e+03
  2.356618e+01    1.313520e+03
  2.361930e+01    1.309662e+03
  2.367242e+01    1.304646e+03
  2.372553e+01    1.299602e+03
  2.377865e+01    1.295485e+03
  2.383177e+01    1.290925e+03
  2.388489e+01    1.284611e+03
  2.393801e+01    1.282464e+03
  2.399113e+01    1.280416e+03
  2.404424e+01    1.277976e+03
  2.409736e+01    1.277816e+03
  2.415048e+01    1.273565e+03
  2.420360e+01    1.270172e+03
  2.425672e+01    1.267623e+03
  2.430983e+01    1.262716e+03
  2.436295e+01    1.262777e+03
  2.441607e+01    1.259181e+03
  2.446919e+01    1.259256e+03
  2.452231e+01    1.258882e+03
  2.457542e+01    1.253356e+03
  2.462854e+01    1.250730e+03
  2.468166e+01    1.248650e+03
  2.473478e+01    1.247225e+03
  2.478790e+01    1.239145e+03
  2.484102e+01    1.236438e+03
  2.489413e+01    1.233528e+03
  2.494725e+01    1.226066e+03
  2.500037e+01    1.222343e+03
  2.505349e+01    1.217219e+03
  2.510661e+01    1.213109e+03
  2.515972e+01    1.212578e+03
  2.521284e+01    1.209752e+03
  2.526596e+01    1.210165e+03
  2.531908e+01    1.205040e+03
  2.537220e+01    1.203742e+03
  2.542532e+01    1.201710e+03
  2.547843e+01    1.198238e+03
  2.553155e+01    1.196484e+03
  2.558467e+01    1.188418e+03
  2.563779e+01    1.179277e+03
  2.569091e+01    1.177345e+03
  2.574402e+01    1.164545e+03
  2.579714e+01    1.161211e+03
  2.585026e+01    1.153535e+03
  2.590338e+01    1.148253e+03
  2.595650e+01    1.145351e+03
  2.600962e+01    1.140998e+03
  2.606273e+01    1.142887e+03
  2.611585e+01    1.143402e+03
  2.616897e+01    1.139608e+03
  2.622209e+01    1.139759e+03
  2.627521e+01    1.135495e+03
  2.632832e+01    1.125834e+03
  2.638144e+01    1.130579e+03
  2.643456e+01    1.116945e+03
  2.648768e+01    1.099386e+03
  2.654080e+01    1.089729e+03
