# == pyFAI calibration ==
# Distance Sample to Detector: 0.2946421923531691 m
# PONI: 2.875e-01, 2.439e-01 m
# Rotations: -0.010990 -0.009181 0.000003 rad
# 
# == Fit2d calibration ==
# Distance Sample-beamCenter: 294.672 mm
# Center: x=1436.809, y=1655.851 pix
# Tilt: 0.820 deg  TiltPlanRot: -39.874 deg
# 
# Detector Pilatus 2M	 PixelSize= 1.720e-04, 1.720e-04 m
#    Detector has a mask: True 
#    Detector has a dark current: False 
#    detector has a flat field: False 
# 
# Wavelength: 2.0732883349524408e-11 m
# Mask applied: from detector
# Dark current applied: False
# Flat field applied: False
# Polarization factor: None
# Normalization factor: 1.0
# --> /gpfs/current/raw/FMue_3/FMue_3_20231024_175355_00002.dat
#        q_A^-1             I 
  3.483473e-02             nan
  8.795289e-02             nan
  1.410711e-01             nan
  1.941892e-01             nan
  2.473074e-01             nan
  3.004255e-01             nan
  3.535437e-01             nan
  4.066619e-01    9.506734e+03
  4.597800e-01    9.102789e+03
  5.128982e-01    8.183665e+03
  5.660163e-01    7.856449e+03
  6.191345e-01    7.881950e+03
  6.722527e-01    8.019836e+03
  7.253708e-01    8.389992e+03
  7.784890e-01    1.353478e+04
  8.316071e-01    2.718303e+04
  8.847253e-01    1.664573e+04
  9.378435e-01    9.373458e+03
  9.909616e-01    9.952529e+03
  1.044080e+00    1.014747e+04
  1.097198e+00    9.947571e+03
  1.150316e+00    1.033663e+04
  1.203434e+00    1.102583e+04
  1.256552e+00    1.202846e+04
  1.309671e+00    1.303319e+04
  1.362789e+00    1.387391e+04
  1.415907e+00    1.455139e+04
  1.469025e+00    1.479936e+04
  1.522143e+00    1.472017e+04
  1.575261e+00    1.425561e+04
  1.628380e+00    1.624960e+04
  1.681498e+00    1.810439e+04
  1.734616e+00    1.271439e+04
  1.787734e+00    1.061275e+04
  1.840852e+00    9.856604e+03
  1.893970e+00    9.309852e+03
  1.947089e+00    9.223916e+03
  2.000207e+00    8.869533e+03
  2.053325e+00    8.147124e+03
  2.106443e+00    7.904410e+03
  2.159561e+00    8.011340e+03
  2.212679e+00    8.191113e+03
  2.265797e+00    8.414076e+03
  2.318916e+00    8.281322e+03
  2.372034e+00    8.792806e+03
  2.425152e+00    1.355851e+04
  2.478270e+00    9.630976e+03
  2.531388e+00    8.138219e+03
  2.584506e+00    8.932311e+03
  2.637625e+00    8.826998e+03
  2.690743e+00    9.138794e+03
  2.743861e+00    1.265705e+04
  2.796979e+00    8.388805e+03
  2.850097e+00    5.886994e+03
  2.903215e+00    5.451637e+03
  2.956334e+00    5.274422e+03
  3.009452e+00    5.371295e+03
  3.062570e+00    6.204743e+03
  3.115688e+00    7.865793e+03
  3.168806e+00    8.880609e+03
  3.221924e+00    1.063921e+04
  3.275043e+00    1.015116e+04
  3.328161e+00    6.312735e+03
  3.381279e+00    6.020427e+03
  3.434397e+00    5.384567e+03
  3.487515e+00    5.073597e+03
  3.540633e+00    5.001805e+03
  3.593751e+00    5.095966e+03
  3.646870e+00    6.298306e+03
  3.699988e+00    5.645809e+03
  3.753106e+00    4.961661e+03
  3.806224e+00    5.122680e+03
  3.859342e+00    5.905228e+03
  3.912460e+00    5.664535e+03
  3.965579e+00    5.160370e+03
  4.018697e+00    5.460500e+03
  4.071815e+00    7.360314e+03
  4.124933e+00    8.161322e+03
  4.178051e+00    8.780039e+03
  4.231169e+00    6.984698e+03
  4.284288e+00    6.426685e+03
  4.337406e+00    7.316122e+03
  4.390524e+00    7.860884e+03
  4.443642e+00    1.030234e+04
  4.496760e+00    1.205095e+04
  4.549878e+00    9.765191e+03
  4.602997e+00    6.323305e+03
  4.656115e+00    5.233231e+03
  4.709233e+00    5.323801e+03
  4.762351e+00    6.052490e+03
  4.815469e+00    5.775471e+03
  4.868587e+00    5.357421e+03
  4.921705e+00    5.795593e+03
  4.974824e+00    5.711171e+03
  5.027942e+00    5.894550e+03
  5.081060e+00    5.803526e+03
  5.134178e+00    5.275835e+03
  5.187296e+00    5.133472e+03
  5.240414e+00    5.360020e+03
  5.293533e+00    4.993436e+03
  5.346651e+00    4.552165e+03
  5.399769e+00    4.327956e+03
  5.452887e+00    4.436372e+03
  5.506005e+00    4.647111e+03
  5.559123e+00    4.131853e+03
  5.612242e+00    3.946593e+03
  5.665360e+00    3.894718e+03
  5.718478e+00    3.570743e+03
  5.771596e+00    3.568983e+03
  5.824714e+00    3.723749e+03
  5.877832e+00    3.694521e+03
  5.930951e+00    3.736808e+03
  5.984069e+00    3.898544e+03
  6.037187e+00    3.802400e+03
  6.090305e+00    3.797435e+03
  6.143423e+00    3.750362e+03
  6.196541e+00    3.727890e+03
  6.249660e+00    4.217528e+03
  6.302778e+00    4.406056e+03
  6.355896e+00    4.004768e+03
  6.409014e+00    4.181257e+03
  6.462132e+00    4.077789e+03
  6.515250e+00    3.925609e+03
  6.568368e+00    3.726982e+03
  6.621487e+00    3.722503e+03
  6.674605e+00    3.695882e+03
  6.727723e+00    3.485401e+03
  6.780841e+00    3.403494e+03
  6.833959e+00    3.478598e+03
  6.887077e+00    3.416473e+03
  6.940196e+00    3.381372e+03
  6.993314e+00    3.482766e+03
  7.046432e+00    3.445202e+03
  7.099550e+00    3.718664e+03
  7.152668e+00    3.819801e+03
  7.205786e+00    3.488956e+03
  7.258905e+00    3.391892e+03
  7.312023e+00    3.253987e+03
  7.365141e+00    3.168333e+03
  7.418259e+00    3.134950e+03
  7.471377e+00    3.138909e+03
  7.524495e+00    3.249609e+03
  7.577614e+00    3.278029e+03
  7.630732e+00    3.331408e+03
  7.683850e+00    3.542759e+03
  7.736968e+00    3.724384e+03
  7.790086e+00    3.785614e+03
  7.843204e+00    3.707167e+03
  7.896322e+00    3.344990e+03
  7.949441e+00    3.091280e+03
  8.002559e+00    3.017777e+03
  8.055677e+00    3.003453e+03
  8.108795e+00    3.024099e+03
  8.161913e+00    3.162629e+03
  8.215031e+00    3.346136e+03
  8.268150e+00    3.189021e+03
  8.321268e+00    3.028932e+03
  8.374386e+00    3.071715e+03
  8.427504e+00    3.018809e+03
  8.480622e+00    2.969840e+03
  8.533740e+00    3.017624e+03
  8.586859e+00    3.080575e+03
  8.639977e+00    3.061335e+03
  8.693095e+00    3.002161e+03
  8.746213e+00    2.967377e+03
  8.799331e+00    2.957075e+03
  8.852449e+00    2.914052e+03
  8.905568e+00    2.882836e+03
  8.958686e+00    2.948500e+03
  9.011804e+00    2.962653e+03
  9.064922e+00    2.905117e+03
  9.118040e+00    2.774101e+03
  9.171158e+00    2.758880e+03
  9.224276e+00    2.799612e+03
  9.277395e+00    2.755072e+03
  9.330513e+00    2.707481e+03
  9.383631e+00    2.710007e+03
  9.436749e+00    2.681887e+03
  9.489867e+00    2.700890e+03
  9.542985e+00    2.715979e+03
  9.596104e+00    2.726937e+03
  9.649222e+00    2.682464e+03
  9.702340e+00    2.640570e+03
  9.755458e+00    2.659583e+03
  9.808576e+00    2.618985e+03
  9.861694e+00    2.604309e+03
  9.914813e+00    2.609826e+03
  9.967931e+00    2.620888e+03
  1.002105e+01    2.605815e+03
  1.007417e+01    2.568261e+03
  1.012729e+01    2.508931e+03
  1.018040e+01    2.496452e+03
  1.023352e+01    2.497245e+03
  1.028664e+01    2.484731e+03
  1.033976e+01    2.505904e+03
  1.039288e+01    2.519194e+03
  1.044599e+01    2.487133e+03
  1.049911e+01    2.490899e+03
  1.055223e+01    2.491738e+03
  1.060535e+01    2.472137e+03
  1.065847e+01    2.452586e+03
  1.071158e+01    2.441939e+03
  1.076470e+01    2.427734e+03
  1.081782e+01    2.455407e+03
  1.087094e+01    2.484460e+03
  1.092406e+01    2.465889e+03
  1.097718e+01    2.451614e+03
  1.103029e+01    2.413474e+03
  1.108341e+01    2.388900e+03
  1.113653e+01    2.385804e+03
  1.118965e+01    2.366403e+03
  1.124277e+01    2.357050e+03
  1.129588e+01    2.353485e+03
  1.134900e+01    2.354305e+03
  1.140212e+01    2.333218e+03
  1.145524e+01    2.301512e+03
  1.150836e+01    2.297236e+03
  1.156148e+01    2.306576e+03
  1.161459e+01    2.324969e+03
  1.166771e+01    2.309427e+03
  1.172083e+01    2.325336e+03
  1.177395e+01    2.314308e+03
  1.182707e+01    2.314303e+03
  1.188018e+01    2.333963e+03
  1.193330e+01    2.327970e+03
  1.198642e+01    2.309749e+03
  1.203954e+01    2.282479e+03
  1.209266e+01    2.267863e+03
  1.214578e+01    2.259505e+03
  1.219889e+01    2.256996e+03
  1.225201e+01    2.263531e+03
  1.230513e+01    2.285147e+03
  1.235825e+01    2.292637e+03
  1.241137e+01    2.267967e+03
  1.246448e+01    2.262189e+03
  1.251760e+01    2.268318e+03
  1.257072e+01    2.266104e+03
  1.262384e+01    2.264055e+03
  1.267696e+01    2.249184e+03
  1.273008e+01    2.241709e+03
  1.278319e+01    2.221263e+03
  1.283631e+01    2.199591e+03
  1.288943e+01    2.190839e+03
  1.294255e+01    2.181447e+03
  1.299567e+01    2.176228e+03
  1.304878e+01    2.164707e+03
  1.310190e+01    2.160250e+03
  1.315502e+01    2.166335e+03
  1.320814e+01    2.142129e+03
  1.326126e+01    2.107126e+03
  1.331437e+01    2.087871e+03
  1.336749e+01    2.074550e+03
  1.342061e+01    2.056278e+03
  1.347373e+01    2.081988e+03
  1.352685e+01    2.086710e+03
  1.357997e+01    2.080700e+03
  1.363308e+01    2.074165e+03
  1.368620e+01    2.061271e+03
  1.373932e+01    2.044893e+03
  1.379244e+01    2.030100e+03
  1.384556e+01    2.024580e+03
  1.389867e+01    2.023388e+03
  1.395179e+01    2.019576e+03
  1.400491e+01    2.018022e+03
  1.405803e+01    2.012034e+03
  1.411115e+01    2.000736e+03
  1.416427e+01    1.997351e+03
  1.421738e+01    1.996723e+03
  1.427050e+01    1.990269e+03
  1.432362e+01    1.992862e+03
  1.437674e+01    1.993679e+03
  1.442986e+01    1.985119e+03
  1.448297e+01    1.975067e+03
  1.453609e+01    1.966347e+03
  1.458921e+01    1.954604e+03
  1.464233e+01    1.950261e+03
  1.469545e+01    1.945875e+03
  1.474857e+01    1.929489e+03
  1.480168e+01    1.948489e+03
  1.485480e+01    1.945073e+03
  1.490792e+01    1.935167e+03
  1.496104e+01    1.924739e+03
  1.501416e+01    1.920796e+03
  1.506727e+01    1.914449e+03
  1.512039e+01    1.910538e+03
  1.517351e+01    1.922463e+03
  1.522663e+01    1.935969e+03
  1.527975e+01    1.930907e+03
  1.533286e+01    1.916459e+03
  1.538598e+01    1.907577e+03
  1.543910e+01    1.895082e+03
  1.549222e+01    1.889808e+03
  1.554534e+01    1.894922e+03
  1.559846e+01    1.894591e+03
  1.565157e+01    1.887497e+03
  1.570469e+01    1.878564e+03
  1.575781e+01    1.873641e+03
  1.581093e+01    1.869021e+03
  1.586405e+01    1.867006e+03
  1.591716e+01    1.860449e+03
  1.597028e+01    1.854246e+03
  1.602340e+01    1.836019e+03
  1.607652e+01    1.824377e+03
  1.612964e+01    1.799625e+03
  1.618276e+01    1.790503e+03
  1.623587e+01    1.793517e+03
  1.628899e+01    1.807764e+03
  1.634211e+01    1.808314e+03
  1.639523e+01    1.804921e+03
  1.644835e+01    1.808427e+03
  1.650146e+01    1.802075e+03
  1.655458e+01    1.802910e+03
  1.660770e+01    1.798136e+03
  1.666082e+01    1.790533e+03
  1.671394e+01    1.788722e+03
  1.676706e+01    1.783892e+03
  1.682017e+01    1.799287e+03
  1.687329e+01    1.785542e+03
  1.692641e+01    1.779947e+03
  1.697953e+01    1.774671e+03
  1.703265e+01    1.770342e+03
  1.708576e+01    1.770491e+03
  1.713888e+01    1.760986e+03
  1.719200e+01    1.758834e+03
  1.724512e+01    1.749997e+03
  1.729824e+01    1.749508e+03
  1.735136e+01    1.744808e+03
  1.740447e+01    1.721223e+03
  1.745759e+01    1.728940e+03
  1.751071e+01    1.728707e+03
  1.756383e+01    1.738083e+03
  1.761695e+01    1.721645e+03
  1.767006e+01    1.717301e+03
  1.772318e+01    1.707901e+03
  1.777630e+01    1.708091e+03
  1.782942e+01    1.700779e+03
  1.788254e+01    1.697756e+03
  1.793565e+01    1.695011e+03
  1.798877e+01    1.691954e+03
  1.804189e+01    1.684494e+03
  1.809501e+01    1.678837e+03
  1.814813e+01    1.676614e+03
  1.820125e+01    1.671624e+03
  1.825436e+01    1.677786e+03
  1.830748e+01    1.669576e+03
  1.836060e+01    1.666022e+03
  1.841372e+01    1.665172e+03
  1.846684e+01    1.659528e+03
  1.851995e+01    1.639410e+03
  1.857307e+01    1.624592e+03
  1.862619e+01    1.613865e+03
  1.867931e+01    1.609504e+03
  1.873243e+01    1.631684e+03
  1.878555e+01    1.635094e+03
  1.883866e+01    1.634814e+03
  1.889178e+01    1.631574e+03
  1.894490e+01    1.644741e+03
  1.899802e+01    1.633316e+03
  1.905114e+01    1.629121e+03
  1.910425e+01    1.622224e+03
  1.915737e+01    1.618299e+03
  1.921049e+01    1.613320e+03
  1.926361e+01    1.609241e+03
  1.931673e+01    1.606922e+03
  1.936985e+01    1.605969e+03
  1.942296e+01    1.602708e+03
  1.947608e+01    1.603525e+03
  1.952920e+01    1.598573e+03
  1.958232e+01    1.598255e+03
  1.963544e+01    1.602680e+03
  1.968855e+01    1.587726e+03
  1.974167e+01    1.575327e+03
  1.979479e+01    1.580398e+03
  1.984791e+01    1.578655e+03
  1.990103e+01    1.576337e+03
  1.995414e+01    1.573643e+03
  2.000726e+01    1.571866e+03
  2.006038e+01    1.567821e+03
  2.011350e+01    1.563735e+03
  2.016662e+01    1.558787e+03
  2.021974e+01    1.562110e+03
  2.027285e+01    1.568260e+03
  2.032597e+01    1.551016e+03
  2.037909e+01    1.547733e+03
  2.043221e+01    1.542630e+03
  2.048533e+01    1.540742e+03
  2.053844e+01    1.540840e+03
  2.059156e+01    1.534001e+03
  2.064468e+01    1.533258e+03
  2.069780e+01    1.511504e+03
  2.075092e+01    1.486455e+03
  2.080404e+01    1.472237e+03
  2.085715e+01    1.491199e+03
  2.091027e+01    1.519640e+03
  2.096339e+01    1.525972e+03
  2.101651e+01    1.532498e+03
  2.106963e+01    1.536747e+03
  2.112274e+01    1.540806e+03
  2.117586e+01    1.540154e+03
  2.122898e+01    1.544505e+03
  2.128210e+01    1.542745e+03
  2.133522e+01    1.541349e+03
  2.138834e+01    1.539977e+03
  2.144145e+01    1.540047e+03
  2.149457e+01    1.539544e+03
  2.154769e+01    1.539719e+03
  2.160081e+01    1.537405e+03
  2.165393e+01    1.539312e+03
  2.170704e+01    1.540010e+03
  2.176016e+01    1.529204e+03
  2.181328e+01    1.538682e+03
  2.186640e+01    1.538365e+03
  2.191952e+01    1.536551e+03
  2.197263e+01    1.533822e+03
  2.202575e+01    1.531664e+03
  2.207887e+01    1.530885e+03
  2.213199e+01    1.529776e+03
  2.218511e+01    1.528718e+03
  2.223823e+01    1.527657e+03
  2.229134e+01    1.526013e+03
  2.234446e+01    1.522971e+03
  2.239758e+01    1.523429e+03
  2.245070e+01    1.521346e+03
  2.250382e+01    1.524156e+03
  2.255693e+01    1.519055e+03
  2.261005e+01    1.500544e+03
  2.266317e+01    1.488869e+03
  2.271629e+01    1.478418e+03
  2.276941e+01    1.469432e+03
  2.282253e+01    1.461958e+03
  2.287564e+01    1.458823e+03
  2.292876e+01    1.451691e+03
  2.298188e+01    1.449439e+03
  2.303500e+01    1.447350e+03
  2.308812e+01    1.444141e+03
  2.314123e+01    1.441779e+03
  2.319435e+01    1.437914e+03
  2.324747e+01    1.429363e+03
  2.330059e+01    1.426053e+03
  2.335371e+01    1.423097e+03
  2.340683e+01    1.419168e+03
  2.345994e+01    1.417041e+03
  2.351306e+01    1.412220e+03
  2.356618e+01    1.408197e+03
  2.361930e+01    1.402679e+03
  2.367242e+01    1.400075e+03
  2.372553e+01    1.391556e+03
  2.377865e+01    1.387509e+03
  2.383177e+01    1.381775e+03
  2.388489e+01    1.378309e+03
  2.393801e+01    1.371501e+03
  2.399113e+01    1.370626e+03
  2.404424e+01    1.370476e+03
  2.409736e+01    1.369025e+03
  2.415048e+01    1.362186e+03
  2.420360e+01    1.358811e+03
  2.425672e+01    1.356928e+03
  2.430983e+01    1.351466e+03
  2.436295e+01    1.348728e+03
  2.441607e+01    1.346825e+03
  2.446919e+01    1.345075e+03
  2.452231e+01    1.342721e+03
  2.457542e+01    1.339577e+03
  2.462854e+01    1.339697e+03
  2.468166e+01    1.336439e+03
  2.473478e+01    1.334645e+03
  2.478790e+01    1.325451e+03
  2.484102e+01    1.322019e+03
  2.489413e+01    1.317346e+03
  2.494725e+01    1.313566e+03
  2.500037e+01    1.311513e+03
  2.505349e+01    1.304595e+03
  2.510661e+01    1.300203e+03
  2.515972e+01    1.297802e+03
  2.521284e+01    1.294500e+03
  2.526596e+01    1.295669e+03
  2.531908e+01    1.287711e+03
  2.537220e+01    1.287350e+03
  2.542532e+01    1.282308e+03
  2.547843e+01    1.280997e+03
  2.553155e+01    1.273721e+03
  2.558467e+01    1.270660e+03
  2.563779e+01    1.259614e+03
  2.569091e+01    1.254616e+03
  2.574402e+01    1.244349e+03
  2.579714e+01    1.240200e+03
  2.585026e+01    1.232590e+03
  2.590338e+01    1.223630e+03
  2.595650e+01    1.220036e+03
  2.600962e+01    1.218968e+03
  2.606273e+01    1.218010e+03
  2.611585e+01    1.214888e+03
  2.616897e+01    1.218336e+03
  2.622209e+01    1.218132e+03
  2.627521e+01    1.208417e+03
  2.632832e+01    1.201020e+03
  2.638144e+01    1.200810e+03
  2.643456e+01    1.196246e+03
  2.648768e+01    1.186623e+03
  2.654080e+01    1.172191e+03
