# == pyFAI calibration ==
# Distance Sample to Detector: 0.2946421923531691 m
# PONI: 2.875e-01, 2.439e-01 m
# Rotations: -0.010990 -0.009181 0.000003 rad
# 
# == Fit2d calibration ==
# Distance Sample-beamCenter: 294.672 mm
# Center: x=1436.809, y=1655.851 pix
# Tilt: 0.820 deg  TiltPlanRot: -39.874 deg
# 
# Detector Pilatus 2M	 PixelSize= 1.720e-04, 1.720e-04 m
#    Detector has a mask: True 
#    Detector has a dark current: False 
#    detector has a flat field: False 
# 
# Wavelength: 2.0732883349524408e-11 m
# Mask applied: from detector
# Dark current applied: False
# Flat field applied: False
# Polarization factor: None
# Normalization factor: 1.0
# --> /gpfs/current/raw/FMue_3/FMue_3_20231024_175355_00088.dat
#        q_A^-1             I 
  3.483473e-02             nan
  8.795289e-02             nan
  1.410711e-01             nan
  1.941892e-01             nan
  2.473074e-01             nan
  3.004255e-01             nan
  3.535437e-01             nan
  4.066619e-01    1.392702e+04
  4.597800e-01    1.263016e+04
  5.128982e-01    1.059752e+04
  5.660163e-01    9.461769e+03
  6.191345e-01    8.938249e+03
  6.722527e-01    8.673482e+03
  7.253708e-01    8.590959e+03
  7.784890e-01    8.576441e+03
  8.316071e-01    8.696577e+03
  8.847253e-01    8.863272e+03
  9.378435e-01    9.293766e+03
  9.909616e-01    1.002587e+04
  1.044080e+00    1.016170e+04
  1.097198e+00    9.955166e+03
  1.150316e+00    1.037675e+04
  1.203434e+00    1.127148e+04
  1.256552e+00    1.226746e+04
  1.309671e+00    1.298340e+04
  1.362789e+00    1.400263e+04
  1.415907e+00    1.455629e+04
  1.469025e+00    1.468462e+04
  1.522143e+00    1.451950e+04
  1.575261e+00    1.389519e+04
  1.628380e+00    1.314393e+04
  1.681498e+00    1.220493e+04
  1.734616e+00    1.124909e+04
  1.787734e+00    1.042389e+04
  1.840852e+00    9.728729e+03
  1.893970e+00    9.239060e+03
  1.947089e+00    9.185891e+03
  2.000207e+00    8.906749e+03
  2.053325e+00    8.362714e+03
  2.106443e+00    8.366910e+03
  2.159561e+00    8.756581e+03
  2.212679e+00    9.019019e+03
  2.265797e+00    9.159349e+03
  2.318916e+00    8.821124e+03
  2.372034e+00    8.167333e+03
  2.425152e+00    8.346068e+03
  2.478270e+00    9.190518e+03
  2.531388e+00    1.073520e+04
  2.584506e+00    1.161918e+04
  2.637625e+00    1.076199e+04
  2.690743e+00    9.395133e+03
  2.743861e+00    8.289005e+03
  2.796979e+00    6.847349e+03
  2.850097e+00    5.812733e+03
  2.903215e+00    5.462098e+03
  2.956334e+00    5.401053e+03
  3.009452e+00    5.675661e+03
  3.062570e+00    6.748494e+03
  3.115688e+00    9.011111e+03
  3.168806e+00    9.468768e+03
  3.221924e+00    7.797497e+03
  3.275043e+00    6.214263e+03
  3.328161e+00    5.537458e+03
  3.381279e+00    5.616896e+03
  3.434397e+00    5.265518e+03
  3.487515e+00    5.009479e+03
  3.540633e+00    4.925708e+03
  3.593751e+00    4.772429e+03
  3.646870e+00    4.771438e+03
  3.699988e+00    4.904139e+03
  3.753106e+00    5.124113e+03
  3.806224e+00    5.282530e+03
  3.859342e+00    5.393476e+03
  3.912460e+00    5.616001e+03
  3.965579e+00    5.982574e+03
  4.018697e+00    6.492736e+03
  4.071815e+00    6.938766e+03
  4.124933e+00    6.924864e+03
  4.178051e+00    6.637240e+03
  4.231169e+00    6.484629e+03
  4.284288e+00    6.787414e+03
  4.337406e+00    7.795540e+03
  4.390524e+00    9.197102e+03
  4.443642e+00    1.152239e+04
  4.496760e+00    1.290224e+04
  4.549878e+00    9.392785e+03
  4.602997e+00    6.209696e+03
  4.656115e+00    5.434042e+03
  4.709233e+00    5.273629e+03
  4.762351e+00    5.371056e+03
  4.815469e+00    5.325616e+03
  4.868587e+00    5.217943e+03
  4.921705e+00    5.237199e+03
  4.974824e+00    5.321459e+03
  5.027942e+00    5.367345e+03
  5.081060e+00    5.443200e+03
  5.134178e+00    5.385012e+03
  5.187296e+00    5.185919e+03
  5.240414e+00    4.891529e+03
  5.293533e+00    4.676251e+03
  5.346651e+00    4.532450e+03
  5.399769e+00    4.428258e+03
  5.452887e+00    4.412019e+03
  5.506005e+00    4.394634e+03
  5.559123e+00    4.032855e+03
  5.612242e+00    3.755098e+03
  5.665360e+00    3.665487e+03
  5.718478e+00    3.581296e+03
  5.771596e+00    3.548353e+03
  5.824714e+00    3.593478e+03
  5.877832e+00    3.703923e+03
  5.930951e+00    3.854600e+03
  5.984069e+00    3.971932e+03
  6.037187e+00    3.987265e+03
  6.090305e+00    3.901254e+03
  6.143423e+00    3.787466e+03
  6.196541e+00    3.834929e+03
  6.249660e+00    4.014423e+03
  6.302778e+00    4.003268e+03
  6.355896e+00    3.743218e+03
  6.409014e+00    3.597336e+03
  6.462132e+00    3.521217e+03
  6.515250e+00    3.453234e+03
  6.568368e+00    3.458649e+03
  6.621487e+00    3.479875e+03
  6.674605e+00    3.513484e+03
  6.727723e+00    3.573626e+03
  6.780841e+00    3.570817e+03
  6.833959e+00    3.485244e+03
  6.887077e+00    3.392415e+03
  6.940196e+00    3.325375e+03
  6.993314e+00    3.352279e+03
  7.046432e+00    3.375235e+03
  7.099550e+00    3.292460e+03
  7.152668e+00    3.211482e+03
  7.205786e+00    3.157006e+03
  7.258905e+00    3.116175e+03
  7.312023e+00    3.128108e+03
  7.365141e+00    3.169250e+03
  7.418259e+00    3.225401e+03
  7.471377e+00    3.277219e+03
  7.524495e+00    3.341127e+03
  7.577614e+00    3.417975e+03
  7.630732e+00    3.474331e+03
  7.683850e+00    3.589873e+03
  7.736968e+00    3.744504e+03
  7.790086e+00    3.691833e+03
  7.843204e+00    3.460472e+03
  7.896322e+00    3.249494e+03
  7.949441e+00    3.146330e+03
  8.002559e+00    3.118305e+03
  8.055677e+00    3.114743e+03
  8.108795e+00    3.112588e+03
  8.161913e+00    3.099444e+03
  8.215031e+00    3.047493e+03
  8.268150e+00    2.981477e+03
  8.321268e+00    2.932887e+03
  8.374386e+00    2.912652e+03
  8.427504e+00    2.891527e+03
  8.480622e+00    2.868949e+03
  8.533740e+00    2.810440e+03
  8.586859e+00    2.838643e+03
  8.639977e+00    2.839601e+03
  8.693095e+00    2.833122e+03
  8.746213e+00    2.834792e+03
  8.799331e+00    2.822250e+03
  8.852449e+00    2.813256e+03
  8.905568e+00    2.834352e+03
  8.958686e+00    2.843133e+03
  9.011804e+00    2.847760e+03
  9.064922e+00    2.783303e+03
  9.118040e+00    2.712163e+03
  9.171158e+00    2.690039e+03
  9.224276e+00    2.676004e+03
  9.277395e+00    2.643955e+03
  9.330513e+00    2.626875e+03
  9.383631e+00    2.614015e+03
  9.436749e+00    2.600126e+03
  9.489867e+00    2.603163e+03
  9.542985e+00    2.596847e+03
  9.596104e+00    2.578265e+03
  9.649222e+00    2.572454e+03
  9.702340e+00    2.571538e+03
  9.755458e+00    2.568059e+03
  9.808576e+00    2.561211e+03
  9.861694e+00    2.567609e+03
  9.914813e+00    2.570015e+03
  9.967931e+00    2.556321e+03
  1.002105e+01    2.513982e+03
  1.007417e+01    2.465069e+03
  1.012729e+01    2.440517e+03
  1.018040e+01    2.442188e+03
  1.023352e+01    2.427418e+03
  1.028664e+01    2.398304e+03
  1.033976e+01    2.380469e+03
  1.039288e+01    2.392762e+03
  1.044599e+01    2.379187e+03
  1.049911e+01    2.377301e+03
  1.055223e+01    2.357616e+03
  1.060535e+01    2.354336e+03
  1.065847e+01    2.347367e+03
  1.071158e+01    2.341116e+03
  1.076470e+01    2.335098e+03
  1.081782e+01    2.329719e+03
  1.087094e+01    2.318470e+03
  1.092406e+01    2.323814e+03
  1.097718e+01    2.328000e+03
  1.103029e+01    2.327055e+03
  1.108341e+01    2.322333e+03
  1.113653e+01    2.312091e+03
  1.118965e+01    2.297517e+03
  1.124277e+01    2.286793e+03
  1.129588e+01    2.278167e+03
  1.134900e+01    2.267815e+03
  1.140212e+01    2.264371e+03
  1.145524e+01    2.260207e+03
  1.150836e+01    2.264892e+03
  1.156148e+01    2.260640e+03
  1.161459e+01    2.267849e+03
  1.166771e+01    2.262059e+03
  1.172083e+01    2.274307e+03
  1.177395e+01    2.256598e+03
  1.182707e+01    2.246476e+03
  1.188018e+01    2.245913e+03
  1.193330e+01    2.227742e+03
  1.198642e+01    2.211131e+03
  1.203954e+01    2.189089e+03
  1.209266e+01    2.177608e+03
  1.214578e+01    2.166384e+03
  1.219889e+01    2.168145e+03
  1.225201e+01    2.166609e+03
  1.230513e+01    2.164078e+03
  1.235825e+01    2.166197e+03
  1.241137e+01    2.154249e+03
  1.246448e+01    2.152050e+03
  1.251760e+01    2.147768e+03
  1.257072e+01    2.141529e+03
  1.262384e+01    2.147186e+03
  1.267696e+01    2.131507e+03
  1.273008e+01    2.116861e+03
  1.278319e+01    2.109225e+03
  1.283631e+01    2.099550e+03
  1.288943e+01    2.094688e+03
  1.294255e+01    2.082635e+03
  1.299567e+01    2.077033e+03
  1.304878e+01    2.071988e+03
  1.310190e+01    2.068240e+03
  1.315502e+01    2.063116e+03
  1.320814e+01    2.040744e+03
  1.326126e+01    2.017090e+03
  1.331437e+01    2.006136e+03
  1.336749e+01    1.999774e+03
  1.342061e+01    1.988618e+03
  1.347373e+01    2.016015e+03
  1.352685e+01    2.018088e+03
  1.357997e+01    2.005999e+03
  1.363308e+01    1.994372e+03
  1.368620e+01    1.982731e+03
  1.373932e+01    1.973640e+03
  1.379244e+01    1.969099e+03
  1.384556e+01    1.962165e+03
  1.389867e+01    1.954828e+03
  1.395179e+01    1.946128e+03
  1.400491e+01    1.942008e+03
  1.405803e+01    1.939543e+03
  1.411115e+01    1.932436e+03
  1.416427e+01    1.921750e+03
  1.421738e+01    1.918815e+03
  1.427050e+01    1.911274e+03
  1.432362e+01    1.912972e+03
  1.437674e+01    1.908134e+03
  1.442986e+01    1.895989e+03
  1.448297e+01    1.888459e+03
  1.453609e+01    1.881957e+03
  1.458921e+01    1.872237e+03
  1.464233e+01    1.867903e+03
  1.469545e+01    1.859864e+03
  1.474857e+01    1.840909e+03
  1.480168e+01    1.851992e+03
  1.485480e+01    1.848289e+03
  1.490792e+01    1.845073e+03
  1.496104e+01    1.836360e+03
  1.501416e+01    1.833850e+03
  1.506727e+01    1.829198e+03
  1.512039e+01    1.826247e+03
  1.517351e+01    1.839059e+03
  1.522663e+01    1.853694e+03
  1.527975e+01    1.849152e+03
  1.533286e+01    1.833084e+03
  1.538598e+01    1.824539e+03
  1.543910e+01    1.816611e+03
  1.549222e+01    1.813617e+03
  1.554534e+01    1.814327e+03
  1.559846e+01    1.810531e+03
  1.565157e+01    1.804205e+03
  1.570469e+01    1.797684e+03
  1.575781e+01    1.795793e+03
  1.581093e+01    1.791531e+03
  1.586405e+01    1.789239e+03
  1.591716e+01    1.784122e+03
  1.597028e+01    1.778161e+03
  1.602340e+01    1.761958e+03
  1.607652e+01    1.752716e+03
  1.612964e+01    1.728663e+03
  1.618276e+01    1.716068e+03
  1.623587e+01    1.717717e+03
  1.628899e+01    1.733185e+03
  1.634211e+01    1.730386e+03
  1.639523e+01    1.725055e+03
  1.644835e+01    1.725981e+03
  1.650146e+01    1.721439e+03
  1.655458e+01    1.718769e+03
  1.660770e+01    1.713943e+03
  1.666082e+01    1.709801e+03
  1.671394e+01    1.710333e+03
  1.676706e+01    1.706426e+03
  1.682017e+01    1.718989e+03
  1.687329e+01    1.707857e+03
  1.692641e+01    1.702233e+03
  1.697953e+01    1.698364e+03
  1.703265e+01    1.693854e+03
  1.708576e+01    1.692925e+03
  1.713888e+01    1.684545e+03
  1.719200e+01    1.682475e+03
  1.724512e+01    1.676393e+03
  1.729824e+01    1.676096e+03
  1.735136e+01    1.669343e+03
  1.740447e+01    1.645885e+03
  1.745759e+01    1.654158e+03
  1.751071e+01    1.655514e+03
  1.756383e+01    1.665242e+03
  1.761695e+01    1.648795e+03
  1.767006e+01    1.646994e+03
  1.772318e+01    1.637069e+03
  1.777630e+01    1.636302e+03
  1.782942e+01    1.628644e+03
  1.788254e+01    1.623632e+03
  1.793565e+01    1.621312e+03
  1.798877e+01    1.620032e+03
  1.804189e+01    1.612937e+03
  1.809501e+01    1.607132e+03
  1.814813e+01    1.604632e+03
  1.820125e+01    1.600227e+03
  1.825436e+01    1.605352e+03
  1.830748e+01    1.597379e+03
  1.836060e+01    1.592973e+03
  1.841372e+01    1.590795e+03
  1.846684e+01    1.585498e+03
  1.851995e+01    1.566210e+03
  1.857307e+01    1.551359e+03
  1.862619e+01    1.541264e+03
  1.867931e+01    1.539339e+03
  1.873243e+01    1.558253e+03
  1.878555e+01    1.559275e+03
  1.883866e+01    1.559120e+03
  1.889178e+01    1.557772e+03
  1.894490e+01    1.569163e+03
  1.899802e+01    1.559174e+03
  1.905114e+01    1.555949e+03
  1.910425e+01    1.549385e+03
  1.915737e+01    1.546774e+03
  1.921049e+01    1.541555e+03
  1.926361e+01    1.537726e+03
  1.931673e+01    1.535451e+03
  1.936985e+01    1.534082e+03
  1.942296e+01    1.531259e+03
  1.947608e+01    1.531008e+03
  1.952920e+01    1.526889e+03
  1.958232e+01    1.527546e+03
  1.963544e+01    1.533221e+03
  1.968855e+01    1.518335e+03
  1.974167e+01    1.506950e+03
  1.979479e+01    1.511518e+03
  1.984791e+01    1.509794e+03
  1.990103e+01    1.508723e+03
  1.995414e+01    1.506676e+03
  2.000726e+01    1.503485e+03
  2.006038e+01    1.500271e+03
  2.011350e+01    1.495749e+03
  2.016662e+01    1.490188e+03
  2.021974e+01    1.493944e+03
  2.027285e+01    1.500155e+03
  2.032597e+01    1.484157e+03
  2.037909e+01    1.480180e+03
  2.043221e+01    1.474707e+03
  2.048533e+01    1.472342e+03
  2.053844e+01    1.472421e+03
  2.059156e+01    1.466441e+03
  2.064468e+01    1.464156e+03
  2.069780e+01    1.442540e+03
  2.075092e+01    1.419737e+03
  2.080404e+01    1.405418e+03
  2.085715e+01    1.425056e+03
  2.091027e+01    1.450685e+03
  2.096339e+01    1.458315e+03
  2.101651e+01    1.462507e+03
  2.106963e+01    1.466534e+03
  2.112274e+01    1.469850e+03
  2.117586e+01    1.470776e+03
  2.122898e+01    1.473028e+03
  2.128210e+01    1.470262e+03
  2.133522e+01    1.471087e+03
  2.138834e+01    1.469421e+03
  2.144145e+01    1.469716e+03
  2.149457e+01    1.471514e+03
  2.154769e+01    1.468921e+03
  2.160081e+01    1.466991e+03
  2.165393e+01    1.470136e+03
  2.170704e+01    1.468785e+03
  2.176016e+01    1.458629e+03
  2.181328e+01    1.466760e+03
  2.186640e+01    1.467333e+03
  2.191952e+01    1.466300e+03
  2.197263e+01    1.465009e+03
  2.202575e+01    1.462952e+03
  2.207887e+01    1.462306e+03
  2.213199e+01    1.461179e+03
  2.218511e+01    1.459464e+03
  2.223823e+01    1.459077e+03
  2.229134e+01    1.457644e+03
  2.234446e+01    1.455906e+03
  2.239758e+01    1.455411e+03
  2.245070e+01    1.452789e+03
  2.250382e+01    1.455189e+03
  2.255693e+01    1.451574e+03
  2.261005e+01    1.432814e+03
  2.266317e+01    1.420490e+03
  2.271629e+01    1.411545e+03
  2.276941e+01    1.403838e+03
  2.282253e+01    1.396699e+03
  2.287564e+01    1.390381e+03
  2.292876e+01    1.386570e+03
  2.298188e+01    1.383448e+03
  2.303500e+01    1.380987e+03
  2.308812e+01    1.378389e+03
  2.314123e+01    1.375620e+03
  2.319435e+01    1.373453e+03
  2.324747e+01    1.363776e+03
  2.330059e+01    1.360542e+03
  2.335371e+01    1.359568e+03
  2.340683e+01    1.355002e+03
  2.345994e+01    1.352274e+03
  2.351306e+01    1.348105e+03
  2.356618e+01    1.343876e+03
  2.361930e+01    1.337950e+03
  2.367242e+01    1.334886e+03
  2.372553e+01    1.326780e+03
  2.377865e+01    1.323559e+03
  2.383177e+01    1.317307e+03
  2.388489e+01    1.310992e+03
  2.393801e+01    1.307721e+03
  2.399113e+01    1.306827e+03
  2.404424e+01    1.302924e+03
  2.409736e+01    1.303968e+03
  2.415048e+01    1.298190e+03
  2.420360e+01    1.296701e+03
  2.425672e+01    1.292261e+03
  2.430983e+01    1.289932e+03
  2.436295e+01    1.286797e+03
  2.441607e+01    1.286168e+03
  2.446919e+01    1.284434e+03
  2.452231e+01    1.284091e+03
  2.457542e+01    1.280290e+03
  2.462854e+01    1.276730e+03
  2.468166e+01    1.278222e+03
  2.473478e+01    1.271387e+03
  2.478790e+01    1.267015e+03
  2.484102e+01    1.260825e+03
  2.489413e+01    1.256450e+03
  2.494725e+01    1.253019e+03
  2.500037e+01    1.248148e+03
  2.505349e+01    1.242365e+03
  2.510661e+01    1.237799e+03
  2.515972e+01    1.234079e+03
  2.521284e+01    1.235393e+03
  2.526596e+01    1.231401e+03
  2.531908e+01    1.228172e+03
  2.537220e+01    1.227551e+03
  2.542532e+01    1.223151e+03
  2.547843e+01    1.221144e+03
  2.553155e+01    1.215054e+03
  2.558467e+01    1.212699e+03
  2.563779e+01    1.201056e+03
  2.569091e+01    1.195994e+03
  2.574402e+01    1.187000e+03
  2.579714e+01    1.182386e+03
  2.585026e+01    1.176411e+03
  2.590338e+01    1.168881e+03
  2.595650e+01    1.165504e+03
  2.600962e+01    1.162714e+03
  2.606273e+01    1.165105e+03
  2.611585e+01    1.159203e+03
  2.616897e+01    1.164341e+03
  2.622209e+01    1.160014e+03
  2.627521e+01    1.163325e+03
  2.632832e+01    1.150797e+03
  2.638144e+01    1.146276e+03
  2.643456e+01    1.140540e+03
  2.648768e+01    1.122270e+03
  2.654080e+01    1.116952e+03
