# == pyFAI calibration ==
# Distance Sample to Detector: 0.2946421923531691 m
# PONI: 2.875e-01, 2.439e-01 m
# Rotations: -0.010990 -0.009181 0.000003 rad
# 
# == Fit2d calibration ==
# Distance Sample-beamCenter: 294.672 mm
# Center: x=1436.809, y=1655.851 pix
# Tilt: 0.820 deg  TiltPlanRot: -39.874 deg
# 
# Detector Pilatus 2M	 PixelSize= 1.720e-04, 1.720e-04 m
#    Detector has a mask: True 
#    Detector has a dark current: False 
#    detector has a flat field: False 
# 
# Wavelength: 2.0732883349524408e-11 m
# Mask applied: from detector
# Dark current applied: False
# Flat field applied: False
# Polarization factor: None
# Normalization factor: 1.0
# --> /gpfs/current/raw/FMue_3/FMue_3_20231024_175355_00044.dat
#        q_A^-1             I 
  3.483473e-02             nan
  8.795289e-02             nan
  1.410711e-01             nan
  1.941892e-01             nan
  2.473074e-01             nan
  3.004255e-01             nan
  3.535437e-01             nan
  4.066619e-01    1.018061e+04
  4.597800e-01    9.630762e+03
  5.128982e-01    8.566783e+03
  5.660163e-01    8.126838e+03
  6.191345e-01    8.075767e+03
  6.722527e-01    8.160922e+03
  7.253708e-01    8.477583e+03
  7.784890e-01    1.249352e+04
  8.316071e-01    2.620988e+04
  8.847253e-01    1.770109e+04
  9.378435e-01    9.547221e+03
  9.909616e-01    1.004252e+04
  1.044080e+00    1.016549e+04
  1.097198e+00    9.904285e+03
  1.150316e+00    1.026911e+04
  1.203434e+00    1.098818e+04
  1.256552e+00    1.198454e+04
  1.309671e+00    1.278960e+04
  1.362789e+00    1.370408e+04
  1.415907e+00    1.437382e+04
  1.469025e+00    1.460622e+04
  1.522143e+00    1.453753e+04
  1.575261e+00    1.406612e+04
  1.628380e+00    1.513925e+04
  1.681498e+00    1.710919e+04
  1.734616e+00    1.290870e+04
  1.787734e+00    1.051326e+04
  1.840852e+00    9.719286e+03
  1.893970e+00    9.181017e+03
  1.947089e+00    9.092734e+03
  2.000207e+00    8.706735e+03
  2.053325e+00    8.009379e+03
  2.106443e+00    7.788422e+03
  2.159561e+00    7.920156e+03
  2.212679e+00    8.090598e+03
  2.265797e+00    8.325391e+03
  2.318916e+00    8.214485e+03
  2.372034e+00    8.817904e+03
  2.425152e+00    1.290254e+04
  2.478270e+00    9.264739e+03
  2.531388e+00    8.147310e+03
  2.584506e+00    8.853005e+03
  2.637625e+00    8.758219e+03
  2.690743e+00    9.047959e+03
  2.743861e+00    1.223372e+04
  2.796979e+00    8.256273e+03
  2.850097e+00    5.867521e+03
  2.903215e+00    5.434521e+03
  2.956334e+00    5.266710e+03
  3.009452e+00    5.372206e+03
  3.062570e+00    6.235150e+03
  3.115688e+00    7.917267e+03
  3.168806e+00    8.763556e+03
  3.221924e+00    9.804694e+03
  3.275043e+00    9.598582e+03
  3.328161e+00    6.269158e+03
  3.381279e+00    5.966089e+03
  3.434397e+00    5.364686e+03
  3.487515e+00    5.071497e+03
  3.540633e+00    5.005234e+03
  3.593751e+00    5.021891e+03
  3.646870e+00    5.938509e+03
  3.699988e+00    5.627852e+03
  3.753106e+00    5.008404e+03
  3.806224e+00    5.085459e+03
  3.859342e+00    5.699053e+03
  3.912460e+00    5.682911e+03
  3.965579e+00    5.215911e+03
  4.018697e+00    5.529768e+03
  4.071815e+00    7.446896e+03
  4.124933e+00    7.961815e+03
  4.178051e+00    8.483188e+03
  4.231169e+00    6.764097e+03
  4.284288e+00    6.322893e+03
  4.337406e+00    7.217291e+03
  4.390524e+00    7.919591e+03
  4.443642e+00    1.024215e+04
  4.496760e+00    1.185772e+04
  4.549878e+00    9.262569e+03
  4.602997e+00    6.185974e+03
  4.656115e+00    5.252342e+03
  4.709233e+00    5.376663e+03
  4.762351e+00    5.981671e+03
  4.815469e+00    5.676200e+03
  4.868587e+00    5.358178e+03
  4.921705e+00    5.711000e+03
  4.974824e+00    5.531512e+03
  5.027942e+00    5.596354e+03
  5.081060e+00    5.720767e+03
  5.134178e+00    5.258483e+03
  5.187296e+00    5.093012e+03
  5.240414e+00    5.206568e+03
  5.293533e+00    4.871325e+03
  5.346651e+00    4.528145e+03
  5.399769e+00    4.309400e+03
  5.452887e+00    4.403348e+03
  5.506005e+00    4.562206e+03
  5.559123e+00    4.081456e+03
  5.612242e+00    3.885336e+03
  5.665360e+00    3.829060e+03
  5.718478e+00    3.555352e+03
  5.771596e+00    3.509906e+03
  5.824714e+00    3.633715e+03
  5.877832e+00    3.671371e+03
  5.930951e+00    3.711511e+03
  5.984069e+00    3.841528e+03
  6.037187e+00    3.773910e+03
  6.090305e+00    3.759436e+03
  6.143423e+00    3.716335e+03
  6.196541e+00    3.739256e+03
  6.249660e+00    4.223336e+03
  6.302778e+00    4.298657e+03
  6.355896e+00    3.969930e+03
  6.409014e+00    4.064193e+03
  6.462132e+00    3.877508e+03
  6.515250e+00    3.826212e+03
  6.568368e+00    3.664917e+03
  6.621487e+00    3.669542e+03
  6.674605e+00    3.596725e+03
  6.727723e+00    3.457325e+03
  6.780841e+00    3.394990e+03
  6.833959e+00    3.449312e+03
  6.887077e+00    3.389440e+03
  6.940196e+00    3.350021e+03
  6.993314e+00    3.423224e+03
  7.046432e+00    3.430718e+03
  7.099550e+00    3.609278e+03
  7.152668e+00    3.648767e+03
  7.205786e+00    3.412981e+03
  7.258905e+00    3.329875e+03
  7.312023e+00    3.205975e+03
  7.365141e+00    3.142754e+03
  7.418259e+00    3.129796e+03
  7.471377e+00    3.136524e+03
  7.524495e+00    3.220058e+03
  7.577614e+00    3.234678e+03
  7.630732e+00    3.283756e+03
  7.683850e+00    3.484382e+03
  7.736968e+00    3.670798e+03
  7.790086e+00    3.684263e+03
  7.843204e+00    3.548368e+03
  7.896322e+00    3.276031e+03
  7.949441e+00    3.067105e+03
  8.002559e+00    3.004887e+03
  8.055677e+00    2.996192e+03
  8.108795e+00    3.019558e+03
  8.161913e+00    3.131929e+03
  8.215031e+00    3.257623e+03
  8.268150e+00    3.113913e+03
  8.321268e+00    3.006600e+03
  8.374386e+00    3.016056e+03
  8.427504e+00    2.976042e+03
  8.480622e+00    2.959683e+03
  8.533740e+00    2.979590e+03
  8.586859e+00    3.013190e+03
  8.639977e+00    2.999892e+03
  8.693095e+00    2.948378e+03
  8.746213e+00    2.925334e+03
  8.799331e+00    2.911745e+03
  8.852449e+00    2.872037e+03
  8.905568e+00    2.857700e+03
  8.958686e+00    2.901868e+03
  9.011804e+00    2.915167e+03
  9.064922e+00    2.849064e+03
  9.118040e+00    2.733747e+03
  9.171158e+00    2.708538e+03
  9.224276e+00    2.733034e+03
  9.277395e+00    2.698023e+03
  9.330513e+00    2.662680e+03
  9.383631e+00    2.666522e+03
  9.436749e+00    2.657135e+03
  9.489867e+00    2.666726e+03
  9.542985e+00    2.669117e+03
  9.596104e+00    2.661223e+03
  9.649222e+00    2.629335e+03
  9.702340e+00    2.597488e+03
  9.755458e+00    2.598565e+03
  9.808576e+00    2.580768e+03
  9.861694e+00    2.573211e+03
  9.914813e+00    2.580591e+03
  9.967931e+00    2.579376e+03
  1.002105e+01    2.548957e+03
  1.007417e+01    2.506981e+03
  1.012729e+01    2.468732e+03
  1.018040e+01    2.457932e+03
  1.023352e+01    2.457229e+03
  1.028664e+01    2.452174e+03
  1.033976e+01    2.456557e+03
  1.039288e+01    2.473726e+03
  1.044599e+01    2.446999e+03
  1.049911e+01    2.450847e+03
  1.055223e+01    2.436634e+03
  1.060535e+01    2.425433e+03
  1.065847e+01    2.412576e+03
  1.071158e+01    2.407492e+03
  1.076470e+01    2.397749e+03
  1.081782e+01    2.417832e+03
  1.087094e+01    2.423383e+03
  1.092406e+01    2.412906e+03
  1.097718e+01    2.399832e+03
  1.103029e+01    2.370516e+03
  1.108341e+01    2.356397e+03
  1.113653e+01    2.347068e+03
  1.118965e+01    2.330363e+03
  1.124277e+01    2.319988e+03
  1.129588e+01    2.314783e+03
  1.134900e+01    2.306571e+03
  1.140212e+01    2.294219e+03
  1.145524e+01    2.274831e+03
  1.150836e+01    2.272085e+03
  1.156148e+01    2.270536e+03
  1.161459e+01    2.280156e+03
  1.166771e+01    2.269770e+03
  1.172083e+01    2.285942e+03
  1.177395e+01    2.278441e+03
  1.182707e+01    2.282429e+03
  1.188018e+01    2.290318e+03
  1.193330e+01    2.279277e+03
  1.198642e+01    2.263256e+03
  1.203954e+01    2.238055e+03
  1.209266e+01    2.229259e+03
  1.214578e+01    2.224764e+03
  1.219889e+01    2.223769e+03
  1.225201e+01    2.228027e+03
  1.230513e+01    2.236283e+03
  1.235825e+01    2.240739e+03
  1.241137e+01    2.226362e+03
  1.246448e+01    2.225496e+03
  1.251760e+01    2.227505e+03
  1.257072e+01    2.224147e+03
  1.262384e+01    2.225244e+03
  1.267696e+01    2.206447e+03
  1.273008e+01    2.191770e+03
  1.278319e+01    2.176830e+03
  1.283631e+01    2.164423e+03
  1.288943e+01    2.154294e+03
  1.294255e+01    2.140131e+03
  1.299567e+01    2.135560e+03
  1.304878e+01    2.128171e+03
  1.310190e+01    2.125558e+03
  1.315502e+01    2.122516e+03
  1.320814e+01    2.097284e+03
  1.326126e+01    2.064485e+03
  1.331437e+01    2.048662e+03
  1.336749e+01    2.034723e+03
  1.342061e+01    2.020045e+03
  1.347373e+01    2.045898e+03
  1.352685e+01    2.049134e+03
  1.357997e+01    2.039897e+03
  1.363308e+01    2.030926e+03
  1.368620e+01    2.022397e+03
  1.373932e+01    2.009683e+03
  1.379244e+01    2.000002e+03
  1.384556e+01    1.996825e+03
  1.389867e+01    1.989053e+03
  1.395179e+01    1.984806e+03
  1.400491e+01    1.981242e+03
  1.405803e+01    1.977642e+03
  1.411115e+01    1.969432e+03
  1.416427e+01    1.962848e+03
  1.421738e+01    1.961699e+03
  1.427050e+01    1.954115e+03
  1.432362e+01    1.957023e+03
  1.437674e+01    1.957215e+03
  1.442986e+01    1.947203e+03
  1.448297e+01    1.936684e+03
  1.453609e+01    1.929121e+03
  1.458921e+01    1.919702e+03
  1.464233e+01    1.916201e+03
  1.469545e+01    1.910856e+03
  1.474857e+01    1.893112e+03
  1.480168e+01    1.908204e+03
  1.485480e+01    1.905238e+03
  1.490792e+01    1.898162e+03
  1.496104e+01    1.890203e+03
  1.501416e+01    1.886432e+03
  1.506727e+01    1.881432e+03
  1.512039e+01    1.876023e+03
  1.517351e+01    1.887739e+03
  1.522663e+01    1.900436e+03
  1.527975e+01    1.898175e+03
  1.533286e+01    1.882881e+03
  1.538598e+01    1.869874e+03
  1.543910e+01    1.861728e+03
  1.549222e+01    1.859871e+03
  1.554534e+01    1.859142e+03
  1.559846e+01    1.858998e+03
  1.565157e+01    1.852345e+03
  1.570469e+01    1.842934e+03
  1.575781e+01    1.840655e+03
  1.581093e+01    1.834912e+03
  1.586405e+01    1.832323e+03
  1.591716e+01    1.827027e+03
  1.597028e+01    1.819535e+03
  1.602340e+01    1.804093e+03
  1.607652e+01    1.791723e+03
  1.612964e+01    1.770202e+03
  1.618276e+01    1.758794e+03
  1.623587e+01    1.761269e+03
  1.628899e+01    1.779266e+03
  1.634211e+01    1.777819e+03
  1.639523e+01    1.773224e+03
  1.644835e+01    1.775602e+03
  1.650146e+01    1.770222e+03
  1.655458e+01    1.769237e+03
  1.660770e+01    1.763094e+03
  1.666082e+01    1.757546e+03
  1.671394e+01    1.757885e+03
  1.676706e+01    1.751604e+03
  1.682017e+01    1.765876e+03
  1.687329e+01    1.755151e+03
  1.692641e+01    1.747512e+03
  1.697953e+01    1.743095e+03
  1.703265e+01    1.739900e+03
  1.708576e+01    1.738210e+03
  1.713888e+01    1.728142e+03
  1.719200e+01    1.727292e+03
  1.724512e+01    1.718533e+03
  1.729824e+01    1.719663e+03
  1.735136e+01    1.714433e+03
  1.740447e+01    1.690118e+03
  1.745759e+01    1.698961e+03
  1.751071e+01    1.700773e+03
  1.756383e+01    1.710120e+03
  1.761695e+01    1.692297e+03
  1.767006e+01    1.689467e+03
  1.772318e+01    1.679252e+03
  1.777630e+01    1.678980e+03
  1.782942e+01    1.671385e+03
  1.788254e+01    1.666885e+03
  1.793565e+01    1.663922e+03
  1.798877e+01    1.662588e+03
  1.804189e+01    1.653828e+03
  1.809501e+01    1.650073e+03
  1.814813e+01    1.647422e+03
  1.820125e+01    1.643811e+03
  1.825436e+01    1.648062e+03
  1.830748e+01    1.643049e+03
  1.836060e+01    1.637966e+03
  1.841372e+01    1.636354e+03
  1.846684e+01    1.631160e+03
  1.851995e+01    1.611060e+03
  1.857307e+01    1.595381e+03
  1.862619e+01    1.584816e+03
  1.867931e+01    1.581908e+03
  1.873243e+01    1.601662e+03
  1.878555e+01    1.605961e+03
  1.883866e+01    1.605616e+03
  1.889178e+01    1.603360e+03
  1.894490e+01    1.615320e+03
  1.899802e+01    1.603925e+03
  1.905114e+01    1.599523e+03
  1.910425e+01    1.594275e+03
  1.915737e+01    1.588238e+03
  1.921049e+01    1.584704e+03
  1.926361e+01    1.580982e+03
  1.931673e+01    1.577954e+03
  1.936985e+01    1.575938e+03
  1.942296e+01    1.573977e+03
  1.947608e+01    1.572930e+03
  1.952920e+01    1.569870e+03
  1.958232e+01    1.567902e+03
  1.963544e+01    1.575047e+03
  1.968855e+01    1.559545e+03
  1.974167e+01    1.548083e+03
  1.979479e+01    1.552175e+03
  1.984791e+01    1.549521e+03
  1.990103e+01    1.548251e+03
  1.995414e+01    1.546223e+03
  2.000726e+01    1.544710e+03
  2.006038e+01    1.539264e+03
  2.011350e+01    1.535752e+03
  2.016662e+01    1.529458e+03
  2.021974e+01    1.533724e+03
  2.027285e+01    1.539354e+03
  2.032597e+01    1.523624e+03
  2.037909e+01    1.519323e+03
  2.043221e+01    1.514784e+03
  2.048533e+01    1.512839e+03
  2.053844e+01    1.512303e+03
  2.059156e+01    1.506085e+03
  2.064468e+01    1.504245e+03
  2.069780e+01    1.483132e+03
  2.075092e+01    1.458989e+03
  2.080404e+01    1.444192e+03
  2.085715e+01    1.463417e+03
  2.091027e+01    1.490462e+03
  2.096339e+01    1.499341e+03
  2.101651e+01    1.503102e+03
  2.106963e+01    1.507546e+03
  2.112274e+01    1.510568e+03
  2.117586e+01    1.511694e+03
  2.122898e+01    1.514469e+03
  2.128210e+01    1.511515e+03
  2.133522e+01    1.512817e+03
  2.138834e+01    1.511185e+03
  2.144145e+01    1.511234e+03
  2.149457e+01    1.511878e+03
  2.154769e+01    1.509690e+03
  2.160081e+01    1.509146e+03
  2.165393e+01    1.510137e+03
  2.170704e+01    1.511006e+03
  2.176016e+01    1.499768e+03
  2.181328e+01    1.508344e+03
  2.186640e+01    1.509600e+03
  2.191952e+01    1.507711e+03
  2.197263e+01    1.505161e+03
  2.202575e+01    1.503577e+03
  2.207887e+01    1.503392e+03
  2.213199e+01    1.500663e+03
  2.218511e+01    1.499777e+03
  2.223823e+01    1.499491e+03
  2.229134e+01    1.496812e+03
  2.234446e+01    1.496934e+03
  2.239758e+01    1.495799e+03
  2.245070e+01    1.492636e+03
  2.250382e+01    1.495490e+03
  2.255693e+01    1.491793e+03
  2.261005e+01    1.472905e+03
  2.266317e+01    1.459764e+03
  2.271629e+01    1.450797e+03
  2.276941e+01    1.440423e+03
  2.282253e+01    1.433461e+03
  2.287564e+01    1.430864e+03
  2.292876e+01    1.424179e+03
  2.298188e+01    1.422855e+03
  2.303500e+01    1.419559e+03
  2.308812e+01    1.417857e+03
  2.314123e+01    1.414053e+03
  2.319435e+01    1.410517e+03
  2.324747e+01    1.402347e+03
  2.330059e+01    1.398150e+03
  2.335371e+01    1.396539e+03
  2.340683e+01    1.391692e+03
  2.345994e+01    1.390514e+03
  2.351306e+01    1.387237e+03
  2.356618e+01    1.381838e+03
  2.361930e+01    1.376394e+03
  2.367242e+01    1.371464e+03
  2.372553e+01    1.366066e+03
  2.377865e+01    1.360585e+03
  2.383177e+01    1.355760e+03
  2.388489e+01    1.349565e+03
  2.393801e+01    1.346179e+03
  2.399113e+01    1.345689e+03
  2.404424e+01    1.342557e+03
  2.409736e+01    1.341310e+03
  2.415048e+01    1.337993e+03
  2.420360e+01    1.333402e+03
  2.425672e+01    1.331873e+03
  2.430983e+01    1.324939e+03
  2.436295e+01    1.325301e+03
  2.441607e+01    1.320923e+03
  2.446919e+01    1.322295e+03
  2.452231e+01    1.319430e+03
  2.457542e+01    1.316503e+03
  2.462854e+01    1.314147e+03
  2.468166e+01    1.313457e+03
  2.473478e+01    1.308899e+03
  2.478790e+01    1.302688e+03
  2.484102e+01    1.298244e+03
  2.489413e+01    1.295974e+03
  2.494725e+01    1.290982e+03
  2.500037e+01    1.285845e+03
  2.505349e+01    1.278670e+03
  2.510661e+01    1.275537e+03
  2.515972e+01    1.273897e+03
  2.521284e+01    1.269593e+03
  2.526596e+01    1.268794e+03
  2.531908e+01    1.263620e+03
  2.537220e+01    1.259290e+03
  2.542532e+01    1.260662e+03
  2.547843e+01    1.254836e+03
  2.553155e+01    1.252447e+03
  2.558467e+01    1.243157e+03
  2.563779e+01    1.237016e+03
  2.569091e+01    1.231546e+03
  2.574402e+01    1.221751e+03
  2.579714e+01    1.214107e+03
  2.585026e+01    1.208550e+03
  2.590338e+01    1.200787e+03
  2.595650e+01    1.200900e+03
  2.600962e+01    1.194333e+03
  2.606273e+01    1.197465e+03
  2.611585e+01    1.195315e+03
  2.616897e+01    1.196425e+03
  2.622209e+01    1.194345e+03
  2.627521e+01    1.187784e+03
  2.632832e+01    1.181069e+03
  2.638144e+01    1.176185e+03
  2.643456e+01    1.177895e+03
  2.648768e+01    1.155527e+03
  2.654080e+01    1.151402e+03
