# == pyFAI calibration ==
# Distance Sample to Detector: 0.2946421923531691 m
# PONI: 2.875e-01, 2.439e-01 m
# Rotations: -0.010990 -0.009181 0.000003 rad
# 
# == Fit2d calibration ==
# Distance Sample-beamCenter: 294.672 mm
# Center: x=1436.809, y=1655.851 pix
# Tilt: 0.820 deg  TiltPlanRot: -39.874 deg
# 
# Detector Pilatus 2M	 PixelSize= 1.720e-04, 1.720e-04 m
#    Detector has a mask: True 
#    Detector has a dark current: False 
#    detector has a flat field: False 
# 
# Wavelength: 2.0732883349524408e-11 m
# Mask applied: from detector
# Dark current applied: False
# Flat field applied: False
# Polarization factor: None
# Normalization factor: 1.0
# --> /gpfs/current/raw/FMue_3/FMue_3_20231024_175355_00111.dat
#        q_A^-1             I 
  3.483473e-02             nan
  8.795289e-02             nan
  1.410711e-01             nan
  1.941892e-01             nan
  2.473074e-01             nan
  3.004255e-01             nan
  3.535437e-01             nan
  4.066619e-01    1.318613e+04
  4.597800e-01    1.208084e+04
  5.128982e-01    1.020605e+04
  5.660163e-01    9.174493e+03
  6.191345e-01    8.724806e+03
  6.722527e-01    8.513958e+03
  7.253708e-01    8.494710e+03
  7.784890e-01    8.514632e+03
  8.316071e-01    8.678045e+03
  8.847253e-01    8.872138e+03
  9.378435e-01    9.294862e+03
  9.909616e-01    9.969581e+03
  1.044080e+00    1.006872e+04
  1.097198e+00    9.907420e+03
  1.150316e+00    1.029871e+04
  1.203434e+00    1.096862e+04
  1.256552e+00    1.185588e+04
  1.309671e+00    1.291733e+04
  1.362789e+00    1.397104e+04
  1.415907e+00    1.449235e+04
  1.469025e+00    1.456593e+04
  1.522143e+00    1.439692e+04
  1.575261e+00    1.378193e+04
  1.628380e+00    1.301954e+04
  1.681498e+00    1.208581e+04
  1.734616e+00    1.113378e+04
  1.787734e+00    1.030890e+04
  1.840852e+00    9.618317e+03
  1.893970e+00    9.128847e+03
  1.947089e+00    9.048265e+03
  2.000207e+00    8.777184e+03
  2.053325e+00    8.303621e+03
  2.106443e+00    8.387671e+03
  2.159561e+00    8.859248e+03
  2.212679e+00    9.128121e+03
  2.265797e+00    9.189451e+03
  2.318916e+00    8.730861e+03
  2.372034e+00    8.052894e+03
  2.425152e+00    8.277403e+03
  2.478270e+00    9.304459e+03
  2.531388e+00    1.118540e+04
  2.584506e+00    1.217817e+04
  2.637625e+00    1.095042e+04
  2.690743e+00    9.264212e+03
  2.743861e+00    8.105633e+03
  2.796979e+00    6.679448e+03
  2.850097e+00    5.691733e+03
  2.903215e+00    5.356167e+03
  2.956334e+00    5.297879e+03
  3.009452e+00    5.595859e+03
  3.062570e+00    6.778797e+03
  3.115688e+00    9.097458e+03
  3.168806e+00    9.371229e+03
  3.221924e+00    7.628444e+03
  3.275043e+00    6.081444e+03
  3.328161e+00    5.399117e+03
  3.381279e+00    5.406850e+03
  3.434397e+00    5.162541e+03
  3.487515e+00    4.937676e+03
  3.540633e+00    4.856107e+03
  3.593751e+00    4.716664e+03
  3.646870e+00    4.729851e+03
  3.699988e+00    4.879653e+03
  3.753106e+00    5.104010e+03
  3.806224e+00    5.262601e+03
  3.859342e+00    5.390245e+03
  3.912460e+00    5.635778e+03
  3.965579e+00    6.090313e+03
  4.018697e+00    6.693004e+03
  4.071815e+00    7.085638e+03
  4.124933e+00    6.923716e+03
  4.178051e+00    6.561403e+03
  4.231169e+00    6.385190e+03
  4.284288e+00    6.721578e+03
  4.337406e+00    7.874197e+03
  4.390524e+00    9.491738e+03
  4.443642e+00    1.176749e+04
  4.496760e+00    1.272988e+04
  4.549878e+00    9.069588e+03
  4.602997e+00    6.083034e+03
  4.656115e+00    5.375293e+03
  4.709233e+00    5.224908e+03
  4.762351e+00    5.301936e+03
  4.815469e+00    5.261173e+03
  4.868587e+00    5.190955e+03
  4.921705e+00    5.226284e+03
  4.974824e+00    5.320660e+03
  5.027942e+00    5.386226e+03
  5.081060e+00    5.480206e+03
  5.134178e+00    5.416715e+03
  5.187296e+00    5.170044e+03
  5.240414e+00    4.851868e+03
  5.293533e+00    4.629472e+03
  5.346651e+00    4.484963e+03
  5.399769e+00    4.394674e+03
  5.452887e+00    4.379252e+03
  5.506005e+00    4.329677e+03
  5.559123e+00    3.975395e+03
  5.612242e+00    3.722417e+03
  5.665360e+00    3.636137e+03
  5.718478e+00    3.564815e+03
  5.771596e+00    3.550108e+03
  5.824714e+00    3.616014e+03
  5.877832e+00    3.744236e+03
  5.930951e+00    3.915165e+03
  5.984069e+00    4.029656e+03
  6.037187e+00    3.999799e+03
  6.090305e+00    3.882441e+03
  6.143423e+00    3.765761e+03
  6.196541e+00    3.834329e+03
  6.249660e+00    4.011740e+03
  6.302778e+00    3.969279e+03
  6.355896e+00    3.698665e+03
  6.409014e+00    3.562559e+03
  6.462132e+00    3.493176e+03
  6.515250e+00    3.435219e+03
  6.568368e+00    3.448175e+03
  6.621487e+00    3.484120e+03
  6.674605e+00    3.534459e+03
  6.727723e+00    3.602541e+03
  6.780841e+00    3.577204e+03
  6.833959e+00    3.469833e+03
  6.887077e+00    3.364564e+03
  6.940196e+00    3.298411e+03
  6.993314e+00    3.326365e+03
  7.046432e+00    3.340614e+03
  7.099550e+00    3.254715e+03
  7.152668e+00    3.179172e+03
  7.205786e+00    3.129683e+03
  7.258905e+00    3.090636e+03
  7.312023e+00    3.121143e+03
  7.365141e+00    3.179324e+03
  7.418259e+00    3.235406e+03
  7.471377e+00    3.279700e+03
  7.524495e+00    3.337331e+03
  7.577614e+00    3.425802e+03
  7.630732e+00    3.493512e+03
  7.683850e+00    3.594734e+03
  7.736968e+00    3.713577e+03
  7.790086e+00    3.630854e+03
  7.843204e+00    3.413024e+03
  7.896322e+00    3.232388e+03
  7.949441e+00    3.147626e+03
  8.002559e+00    3.129105e+03
  8.055677e+00    3.130608e+03
  8.108795e+00    3.115722e+03
  8.161913e+00    3.084676e+03
  8.215031e+00    3.024948e+03
  8.268150e+00    2.961956e+03
  8.321268e+00    2.915604e+03
  8.374386e+00    2.895869e+03
  8.427504e+00    2.876322e+03
  8.480622e+00    2.857073e+03
  8.533740e+00    2.802677e+03
  8.586859e+00    2.835218e+03
  8.639977e+00    2.832596e+03
  8.693095e+00    2.825013e+03
  8.746213e+00    2.825435e+03
  8.799331e+00    2.815667e+03
  8.852449e+00    2.810695e+03
  8.905568e+00    2.821862e+03
  8.958686e+00    2.827578e+03
  9.011804e+00    2.827459e+03
  9.064922e+00    2.762019e+03
  9.118040e+00    2.707463e+03
  9.171158e+00    2.687844e+03
  9.224276e+00    2.670872e+03
  9.277395e+00    2.636714e+03
  9.330513e+00    2.614922e+03
  9.383631e+00    2.598571e+03
  9.436749e+00    2.582195e+03
  9.489867e+00    2.584530e+03
  9.542985e+00    2.581427e+03
  9.596104e+00    2.566851e+03
  9.649222e+00    2.567628e+03
  9.702340e+00    2.565941e+03
  9.755458e+00    2.559882e+03
  9.808576e+00    2.556505e+03
  9.861694e+00    2.557550e+03
  9.914813e+00    2.557528e+03
  9.967931e+00    2.539512e+03
  1.002105e+01    2.497691e+03
  1.007417e+01    2.457151e+03
  1.012729e+01    2.432724e+03
  1.018040e+01    2.433193e+03
  1.023352e+01    2.417726e+03
  1.028664e+01    2.384416e+03
  1.033976e+01    2.363917e+03
  1.039288e+01    2.381180e+03
  1.044599e+01    2.365406e+03
  1.049911e+01    2.364219e+03
  1.055223e+01    2.346061e+03
  1.060535e+01    2.347205e+03
  1.065847e+01    2.340409e+03
  1.071158e+01    2.332565e+03
  1.076470e+01    2.323500e+03
  1.081782e+01    2.321926e+03
  1.087094e+01    2.311005e+03
  1.092406e+01    2.316335e+03
  1.097718e+01    2.318658e+03
  1.103029e+01    2.321264e+03
  1.108341e+01    2.315203e+03
  1.113653e+01    2.305496e+03
  1.118965e+01    2.286585e+03
  1.124277e+01    2.274630e+03
  1.129588e+01    2.265186e+03
  1.134900e+01    2.255568e+03
  1.140212e+01    2.254308e+03
  1.145524e+01    2.252934e+03
  1.150836e+01    2.259242e+03
  1.156148e+01    2.257598e+03
  1.161459e+01    2.264292e+03
  1.166771e+01    2.254449e+03
  1.172083e+01    2.264050e+03
  1.177395e+01    2.246966e+03
  1.182707e+01    2.235178e+03
  1.188018e+01    2.231601e+03
  1.193330e+01    2.215970e+03
  1.198642e+01    2.199326e+03
  1.203954e+01    2.177251e+03
  1.209266e+01    2.167095e+03
  1.214578e+01    2.158681e+03
  1.219889e+01    2.160234e+03
  1.225201e+01    2.161842e+03
  1.230513e+01    2.157141e+03
  1.235825e+01    2.159400e+03
  1.241137e+01    2.146907e+03
  1.246448e+01    2.143713e+03
  1.251760e+01    2.138208e+03
  1.257072e+01    2.130705e+03
  1.262384e+01    2.136774e+03
  1.267696e+01    2.121727e+03
  1.273008e+01    2.106647e+03
  1.278319e+01    2.100384e+03
  1.283631e+01    2.090397e+03
  1.288943e+01    2.085929e+03
  1.294255e+01    2.073496e+03
  1.299567e+01    2.068779e+03
  1.304878e+01    2.061621e+03
  1.310190e+01    2.060682e+03
  1.315502e+01    2.055130e+03
  1.320814e+01    2.033383e+03
  1.326126e+01    2.008715e+03
  1.331437e+01    1.998840e+03
  1.336749e+01    1.991322e+03
  1.342061e+01    1.980249e+03
  1.347373e+01    2.008863e+03
  1.352685e+01    2.009806e+03
  1.357997e+01    1.995469e+03
  1.363308e+01    1.984471e+03
  1.368620e+01    1.974523e+03
  1.373932e+01    1.965237e+03
  1.379244e+01    1.960351e+03
  1.384556e+01    1.954815e+03
  1.389867e+01    1.946334e+03
  1.395179e+01    1.938354e+03
  1.400491e+01    1.934930e+03
  1.405803e+01    1.929412e+03
  1.411115e+01    1.922294e+03
  1.416427e+01    1.911825e+03
  1.421738e+01    1.909098e+03
  1.427050e+01    1.901495e+03
  1.432362e+01    1.901455e+03
  1.437674e+01    1.896577e+03
  1.442986e+01    1.886788e+03
  1.448297e+01    1.879197e+03
  1.453609e+01    1.872215e+03
  1.458921e+01    1.864089e+03
  1.464233e+01    1.858297e+03
  1.469545e+01    1.852261e+03
  1.474857e+01    1.832684e+03
  1.480168e+01    1.844228e+03
  1.485480e+01    1.842031e+03
  1.490792e+01    1.836214e+03
  1.496104e+01    1.826533e+03
  1.501416e+01    1.825067e+03
  1.506727e+01    1.820492e+03
  1.512039e+01    1.817856e+03
  1.517351e+01    1.830313e+03
  1.522663e+01    1.844720e+03
  1.527975e+01    1.841773e+03
  1.533286e+01    1.825640e+03
  1.538598e+01    1.816939e+03
  1.543910e+01    1.806983e+03
  1.549222e+01    1.805104e+03
  1.554534e+01    1.804570e+03
  1.559846e+01    1.802833e+03
  1.565157e+01    1.794566e+03
  1.570469e+01    1.789396e+03
  1.575781e+01    1.786211e+03
  1.581093e+01    1.782833e+03
  1.586405e+01    1.780769e+03
  1.591716e+01    1.774037e+03
  1.597028e+01    1.770015e+03
  1.602340e+01    1.754063e+03
  1.607652e+01    1.743048e+03
  1.612964e+01    1.719291e+03
  1.618276e+01    1.708547e+03
  1.623587e+01    1.709372e+03
  1.628899e+01    1.724782e+03
  1.634211e+01    1.722479e+03
  1.639523e+01    1.718298e+03
  1.644835e+01    1.719265e+03
  1.650146e+01    1.712098e+03
  1.655458e+01    1.710424e+03
  1.660770e+01    1.706394e+03
  1.666082e+01    1.701483e+03
  1.671394e+01    1.702354e+03
  1.676706e+01    1.698268e+03
  1.682017e+01    1.709093e+03
  1.687329e+01    1.700758e+03
  1.692641e+01    1.695305e+03
  1.697953e+01    1.689944e+03
  1.703265e+01    1.683857e+03
  1.708576e+01    1.683225e+03
  1.713888e+01    1.676691e+03
  1.719200e+01    1.674024e+03
  1.724512e+01    1.667774e+03
  1.729824e+01    1.667275e+03
  1.735136e+01    1.661238e+03
  1.740447e+01    1.637773e+03
  1.745759e+01    1.644903e+03
  1.751071e+01    1.647549e+03
  1.756383e+01    1.658210e+03
  1.761695e+01    1.641676e+03
  1.767006e+01    1.639832e+03
  1.772318e+01    1.630977e+03
  1.777630e+01    1.629186e+03
  1.782942e+01    1.621858e+03
  1.788254e+01    1.617468e+03
  1.793565e+01    1.613744e+03
  1.798877e+01    1.610507e+03
  1.804189e+01    1.605491e+03
  1.809501e+01    1.601242e+03
  1.814813e+01    1.598268e+03
  1.820125e+01    1.592216e+03
  1.825436e+01    1.598222e+03
  1.830748e+01    1.591443e+03
  1.836060e+01    1.586577e+03
  1.841372e+01    1.583177e+03
  1.846684e+01    1.578667e+03
  1.851995e+01    1.558263e+03
  1.857307e+01    1.545233e+03
  1.862619e+01    1.534859e+03
  1.867931e+01    1.531682e+03
  1.873243e+01    1.550665e+03
  1.878555e+01    1.552404e+03
  1.883866e+01    1.551876e+03
  1.889178e+01    1.551171e+03
  1.894490e+01    1.563343e+03
  1.899802e+01    1.551881e+03
  1.905114e+01    1.548104e+03
  1.910425e+01    1.542554e+03
  1.915737e+01    1.538198e+03
  1.921049e+01    1.534534e+03
  1.926361e+01    1.532032e+03
  1.931673e+01    1.528225e+03
  1.936985e+01    1.526395e+03
  1.942296e+01    1.523057e+03
  1.947608e+01    1.523129e+03
  1.952920e+01    1.519495e+03
  1.958232e+01    1.519990e+03
  1.963544e+01    1.525265e+03
  1.968855e+01    1.510517e+03
  1.974167e+01    1.499585e+03
  1.979479e+01    1.504841e+03
  1.984791e+01    1.502548e+03
  1.990103e+01    1.500196e+03
  1.995414e+01    1.499071e+03
  2.000726e+01    1.496090e+03
  2.006038e+01    1.492079e+03
  2.011350e+01    1.489389e+03
  2.016662e+01    1.483362e+03
  2.021974e+01    1.484937e+03
  2.027285e+01    1.492116e+03
  2.032597e+01    1.476431e+03
  2.037909e+01    1.472039e+03
  2.043221e+01    1.466349e+03
  2.048533e+01    1.464545e+03
  2.053844e+01    1.464314e+03
  2.059156e+01    1.458870e+03
  2.064468e+01    1.455951e+03
  2.069780e+01    1.435848e+03
  2.075092e+01    1.411271e+03
  2.080404e+01    1.398468e+03
  2.085715e+01    1.417657e+03
  2.091027e+01    1.443808e+03
  2.096339e+01    1.449576e+03
  2.101651e+01    1.455139e+03
  2.106963e+01    1.458627e+03
  2.112274e+01    1.462667e+03
  2.117586e+01    1.464708e+03
  2.122898e+01    1.466860e+03
  2.128210e+01    1.464052e+03
  2.133522e+01    1.464201e+03
  2.138834e+01    1.463338e+03
  2.144145e+01    1.461963e+03
  2.149457e+01    1.462515e+03
  2.154769e+01    1.461500e+03
  2.160081e+01    1.460214e+03
  2.165393e+01    1.461781e+03
  2.170704e+01    1.461086e+03
  2.176016e+01    1.451488e+03
  2.181328e+01    1.459486e+03
  2.186640e+01    1.460183e+03
  2.191952e+01    1.458883e+03
  2.197263e+01    1.457116e+03
  2.202575e+01    1.456594e+03
  2.207887e+01    1.455843e+03
  2.213199e+01    1.454133e+03
  2.218511e+01    1.452334e+03
  2.223823e+01    1.451537e+03
  2.229134e+01    1.449388e+03
  2.234446e+01    1.448002e+03
  2.239758e+01    1.448859e+03
  2.245070e+01    1.446491e+03
  2.250382e+01    1.446348e+03
  2.255693e+01    1.442457e+03
  2.261005e+01    1.425690e+03
  2.266317e+01    1.412352e+03
  2.271629e+01    1.404268e+03
  2.276941e+01    1.394704e+03
  2.282253e+01    1.386877e+03
  2.287564e+01    1.384604e+03
  2.292876e+01    1.379623e+03
  2.298188e+01    1.375269e+03
  2.303500e+01    1.374167e+03
  2.308812e+01    1.370897e+03
  2.314123e+01    1.369520e+03
  2.319435e+01    1.363502e+03
  2.324747e+01    1.357950e+03
  2.330059e+01    1.352849e+03
  2.335371e+01    1.352222e+03
  2.340683e+01    1.348249e+03
  2.345994e+01    1.343705e+03
  2.351306e+01    1.341765e+03
  2.356618e+01    1.335570e+03
  2.361930e+01    1.330920e+03
  2.367242e+01    1.325351e+03
  2.372553e+01    1.318773e+03
  2.377865e+01    1.314746e+03
  2.383177e+01    1.309895e+03
  2.388489e+01    1.305562e+03
  2.393801e+01    1.300725e+03
  2.399113e+01    1.299232e+03
  2.404424e+01    1.300290e+03
  2.409736e+01    1.298559e+03
  2.415048e+01    1.292197e+03
  2.420360e+01    1.289327e+03
  2.425672e+01    1.287710e+03
  2.430983e+01    1.284535e+03
  2.436295e+01    1.281710e+03
  2.441607e+01    1.280229e+03
  2.446919e+01    1.278525e+03
  2.452231e+01    1.277694e+03
  2.457542e+01    1.274874e+03
  2.462854e+01    1.271879e+03
  2.468166e+01    1.270213e+03
  2.473478e+01    1.265008e+03
  2.478790e+01    1.259234e+03
  2.484102e+01    1.256611e+03
  2.489413e+01    1.252310e+03
  2.494725e+01    1.248300e+03
  2.500037e+01    1.244030e+03
  2.505349e+01    1.238110e+03
  2.510661e+01    1.233584e+03
  2.515972e+01    1.228957e+03
  2.521284e+01    1.228221e+03
  2.526596e+01    1.228096e+03
  2.531908e+01    1.223578e+03
  2.537220e+01    1.222733e+03
  2.542532e+01    1.219128e+03
  2.547843e+01    1.217707e+03
  2.553155e+01    1.213620e+03
  2.558467e+01    1.204196e+03
  2.563779e+01    1.198674e+03
  2.569091e+01    1.194469e+03
  2.574402e+01    1.184526e+03
  2.579714e+01    1.177690e+03
  2.585026e+01    1.168910e+03
  2.590338e+01    1.166087e+03
  2.595650e+01    1.161848e+03
  2.600962e+01    1.160722e+03
  2.606273e+01    1.160125e+03
  2.611585e+01    1.156911e+03
  2.616897e+01    1.157613e+03
  2.622209e+01    1.157921e+03
  2.627521e+01    1.149054e+03
  2.632832e+01    1.142139e+03
  2.638144e+01    1.141225e+03
  2.643456e+01    1.137459e+03
  2.648768e+01    1.128594e+03
  2.654080e+01    1.118635e+03
