# == pyFAI calibration ==
# Distance Sample to Detector: 0.2946421923531691 m
# PONI: 2.875e-01, 2.439e-01 m
# Rotations: -0.010990 -0.009181 0.000003 rad
# 
# == Fit2d calibration ==
# Distance Sample-beamCenter: 294.672 mm
# Center: x=1436.809, y=1655.851 pix
# Tilt: 0.820 deg  TiltPlanRot: -39.874 deg
# 
# Detector Pilatus 2M	 PixelSize= 1.720e-04, 1.720e-04 m
#    Detector has a mask: True 
#    Detector has a dark current: False 
#    detector has a flat field: False 
# 
# Wavelength: 2.0732883349524408e-11 m
# Mask applied: from detector
# Dark current applied: False
# Flat field applied: False
# Polarization factor: None
# Normalization factor: 1.0
# --> /gpfs/current/raw/FMue_3/FMue_3_20231024_175355_00072.dat
#        q_A^-1             I 
  3.483473e-02             nan
  8.795289e-02             nan
  1.410711e-01             nan
  1.941892e-01             nan
  2.473074e-01             nan
  3.004255e-01             nan
  3.535437e-01             nan
  4.066619e-01    1.391388e+04
  4.597800e-01    1.269242e+04
  5.128982e-01    1.083749e+04
  5.660163e-01    9.825332e+03
  6.191345e-01    9.416535e+03
  6.722527e-01    9.223667e+03
  7.253708e-01    9.216895e+03
  7.784890e-01    9.343217e+03
  8.316071e-01    9.683443e+03
  8.847253e-01    1.009425e+04
  9.378435e-01    1.066303e+04
  9.909616e-01    1.124557e+04
  1.044080e+00    1.103960e+04
  1.097198e+00    1.045595e+04
  1.150316e+00    1.064447e+04
  1.203434e+00    1.130728e+04
  1.256552e+00    1.224965e+04
  1.309671e+00    1.287973e+04
  1.362789e+00    1.380553e+04
  1.415907e+00    1.448234e+04
  1.469025e+00    1.471836e+04
  1.522143e+00    1.464158e+04
  1.575261e+00    1.407971e+04
  1.628380e+00    1.337078e+04
  1.681498e+00    1.248516e+04
  1.734616e+00    1.156645e+04
  1.787734e+00    1.078271e+04
  1.840852e+00    1.013626e+04
  1.893970e+00    9.616776e+03
  1.947089e+00    9.483970e+03
  2.000207e+00    9.060221e+03
  2.053325e+00    8.368492e+03
  2.106443e+00    8.203271e+03
  2.159561e+00    8.416253e+03
  2.212679e+00    8.635232e+03
  2.265797e+00    8.920223e+03
  2.318916e+00    8.829698e+03
  2.372034e+00    8.500297e+03
  2.425152e+00    8.730729e+03
  2.478270e+00    9.022413e+03
  2.531388e+00    9.766534e+03
  2.584506e+00    1.017515e+04
  2.637625e+00    9.757313e+03
  2.690743e+00    9.073575e+03
  2.743861e+00    8.429754e+03
  2.796979e+00    7.253543e+03
  2.850097e+00    6.310160e+03
  2.903215e+00    5.964456e+03
  2.956334e+00    5.860321e+03
  3.009452e+00    5.969663e+03
  3.062570e+00    6.649528e+03
  3.115688e+00    8.547043e+03
  3.168806e+00    9.169322e+03
  3.221924e+00    7.870963e+03
  3.275043e+00    6.466965e+03
  3.328161e+00    5.852839e+03
  3.381279e+00    5.955142e+03
  3.434397e+00    5.549351e+03
  3.487515e+00    5.289700e+03
  3.540633e+00    5.209385e+03
  3.593751e+00    5.037047e+03
  3.646870e+00    5.016825e+03
  3.699988e+00    5.100922e+03
  3.753106e+00    5.246097e+03
  3.806224e+00    5.322583e+03
  3.859342e+00    5.352579e+03
  3.912460e+00    5.458008e+03
  3.965579e+00    5.664179e+03
  4.018697e+00    6.093139e+03
  4.071815e+00    6.722388e+03
  4.124933e+00    7.131899e+03
  4.178051e+00    7.115656e+03
  4.231169e+00    6.887344e+03
  4.284288e+00    6.905538e+03
  4.337406e+00    7.356438e+03
  4.390524e+00    8.102255e+03
  4.443642e+00    1.033210e+04
  4.496760e+00    1.232822e+04
  4.549878e+00    9.334850e+03
  4.602997e+00    6.277513e+03
  4.656115e+00    5.556819e+03
  4.709233e+00    5.452376e+03
  4.762351e+00    5.593527e+03
  4.815469e+00    5.554771e+03
  4.868587e+00    5.401363e+03
  4.921705e+00    5.360632e+03
  4.974824e+00    5.377768e+03
  5.027942e+00    5.335632e+03
  5.081060e+00    5.316285e+03
  5.134178e+00    5.212592e+03
  5.187296e+00    5.065943e+03
  5.240414e+00    4.861579e+03
  5.293533e+00    4.712307e+03
  5.346651e+00    4.555180e+03
  5.399769e+00    4.418125e+03
  5.452887e+00    4.418028e+03
  5.506005e+00    4.438603e+03
  5.559123e+00    4.097547e+03
  5.612242e+00    3.818678e+03
  5.665360e+00    3.719497e+03
  5.718478e+00    3.609386e+03
  5.771596e+00    3.531267e+03
  5.824714e+00    3.525239e+03
  5.877832e+00    3.572288e+03
  5.930951e+00    3.669826e+03
  5.984069e+00    3.782645e+03
  6.037187e+00    3.848693e+03
  6.090305e+00    3.831067e+03
  6.143423e+00    3.766330e+03
  6.196541e+00    3.832922e+03
  6.249660e+00    4.037416e+03
  6.302778e+00    4.085594e+03
  6.355896e+00    3.875523e+03
  6.409014e+00    3.741146e+03
  6.462132e+00    3.652848e+03
  6.515250e+00    3.559552e+03
  6.568368e+00    3.524541e+03
  6.621487e+00    3.495333e+03
  6.674605e+00    3.471410e+03
  6.727723e+00    3.497130e+03
  6.780841e+00    3.482198e+03
  6.833959e+00    3.428721e+03
  6.887077e+00    3.375821e+03
  6.940196e+00    3.323817e+03
  6.993314e+00    3.358949e+03
  7.046432e+00    3.409792e+03
  7.099550e+00    3.361205e+03
  7.152668e+00    3.293776e+03
  7.205786e+00    3.243431e+03
  7.258905e+00    3.180995e+03
  7.312023e+00    3.157434e+03
  7.365141e+00    3.163002e+03
  7.418259e+00    3.187475e+03
  7.471377e+00    3.220885e+03
  7.524495e+00    3.262302e+03
  7.577614e+00    3.296405e+03
  7.630732e+00    3.315896e+03
  7.683850e+00    3.441215e+03
  7.736968e+00    3.649081e+03
  7.790086e+00    3.649667e+03
  7.843204e+00    3.429625e+03
  7.896322e+00    3.209856e+03
  7.949441e+00    3.084325e+03
  8.002559e+00    3.037473e+03
  8.055677e+00    3.036618e+03
  8.108795e+00    3.047940e+03
  8.161913e+00    3.073222e+03
  8.215031e+00    3.057404e+03
  8.268150e+00    3.011625e+03
  8.321268e+00    2.972021e+03
  8.374386e+00    2.950998e+03
  8.427504e+00    2.935735e+03
  8.480622e+00    2.910909e+03
  8.533740e+00    2.848716e+03
  8.586859e+00    2.874972e+03
  8.639977e+00    2.870382e+03
  8.693095e+00    2.854788e+03
  8.746213e+00    2.849160e+03
  8.799331e+00    2.823580e+03
  8.852449e+00    2.815407e+03
  8.905568e+00    2.837236e+03
  8.958686e+00    2.851291e+03
  9.011804e+00    2.857323e+03
  9.064922e+00    2.784594e+03
  9.118040e+00    2.703097e+03
  9.171158e+00    2.668294e+03
  9.224276e+00    2.650574e+03
  9.277395e+00    2.626286e+03
  9.330513e+00    2.618246e+03
  9.383631e+00    2.610448e+03
  9.436749e+00    2.609496e+03
  9.489867e+00    2.611053e+03
  9.542985e+00    2.604101e+03
  9.596104e+00    2.574288e+03
  9.649222e+00    2.556827e+03
  9.702340e+00    2.549546e+03
  9.755458e+00    2.542577e+03
  9.808576e+00    2.535787e+03
  9.861694e+00    2.541106e+03
  9.914813e+00    2.549415e+03
  9.967931e+00    2.542055e+03
  1.002105e+01    2.501315e+03
  1.007417e+01    2.451145e+03
  1.012729e+01    2.420363e+03
  1.018040e+01    2.422220e+03
  1.023352e+01    2.412648e+03
  1.028664e+01    2.392744e+03
  1.033976e+01    2.381143e+03
  1.039288e+01    2.401006e+03
  1.044599e+01    2.388673e+03
  1.049911e+01    2.386749e+03
  1.055223e+01    2.366764e+03
  1.060535e+01    2.363866e+03
  1.065847e+01    2.356331e+03
  1.071158e+01    2.349630e+03
  1.076470e+01    2.339825e+03
  1.081782e+01    2.340240e+03
  1.087094e+01    2.326510e+03
  1.092406e+01    2.329152e+03
  1.097718e+01    2.328941e+03
  1.103029e+01    2.322635e+03
  1.108341e+01    2.316167e+03
  1.113653e+01    2.303593e+03
  1.118965e+01    2.288711e+03
  1.124277e+01    2.280765e+03
  1.129588e+01    2.275946e+03
  1.134900e+01    2.263101e+03
  1.140212e+01    2.258106e+03
  1.145524e+01    2.248090e+03
  1.150836e+01    2.246977e+03
  1.156148e+01    2.238203e+03
  1.161459e+01    2.240259e+03
  1.166771e+01    2.233628e+03
  1.172083e+01    2.251641e+03
  1.177395e+01    2.239554e+03
  1.182707e+01    2.236672e+03
  1.188018e+01    2.240518e+03
  1.193330e+01    2.225823e+03
  1.198642e+01    2.209211e+03
  1.203954e+01    2.189331e+03
  1.209266e+01    2.180504e+03
  1.214578e+01    2.170798e+03
  1.219889e+01    2.174121e+03
  1.225201e+01    2.169584e+03
  1.230513e+01    2.163418e+03
  1.235825e+01    2.168341e+03
  1.241137e+01    2.159481e+03
  1.246448e+01    2.159784e+03
  1.251760e+01    2.160093e+03
  1.257072e+01    2.154440e+03
  1.262384e+01    2.157756e+03
  1.267696e+01    2.142671e+03
  1.273008e+01    2.124843e+03
  1.278319e+01    2.116804e+03
  1.283631e+01    2.108941e+03
  1.288943e+01    2.103100e+03
  1.294255e+01    2.090901e+03
  1.299567e+01    2.082592e+03
  1.304878e+01    2.074918e+03
  1.310190e+01    2.071754e+03
  1.315502e+01    2.063435e+03
  1.320814e+01    2.038246e+03
  1.326126e+01    2.011428e+03
  1.331437e+01    1.998205e+03
  1.336749e+01    1.989145e+03
  1.342061e+01    1.977326e+03
  1.347373e+01    2.003585e+03
  1.352685e+01    2.008618e+03
  1.357997e+01    1.998522e+03
  1.363308e+01    1.985659e+03
  1.368620e+01    1.977883e+03
  1.373932e+01    1.966367e+03
  1.379244e+01    1.963118e+03
  1.384556e+01    1.956490e+03
  1.389867e+01    1.947133e+03
  1.395179e+01    1.940823e+03
  1.400491e+01    1.938031e+03
  1.405803e+01    1.936165e+03
  1.411115e+01    1.927769e+03
  1.416427e+01    1.917935e+03
  1.421738e+01    1.916636e+03
  1.427050e+01    1.907567e+03
  1.432362e+01    1.907927e+03
  1.437674e+01    1.905094e+03
  1.442986e+01    1.893916e+03
  1.448297e+01    1.885733e+03
  1.453609e+01    1.880132e+03
  1.458921e+01    1.870599e+03
  1.464233e+01    1.866979e+03
  1.469545e+01    1.862608e+03
  1.474857e+01    1.840202e+03
  1.480168e+01    1.854432e+03
  1.485480e+01    1.851275e+03
  1.490792e+01    1.847903e+03
  1.496104e+01    1.840247e+03
  1.501416e+01    1.836938e+03
  1.506727e+01    1.831674e+03
  1.512039e+01    1.829411e+03
  1.517351e+01    1.841485e+03
  1.522663e+01    1.854219e+03
  1.527975e+01    1.849250e+03
  1.533286e+01    1.834647e+03
  1.538598e+01    1.823171e+03
  1.543910e+01    1.813833e+03
  1.549222e+01    1.811684e+03
  1.554534e+01    1.813825e+03
  1.559846e+01    1.810266e+03
  1.565157e+01    1.801964e+03
  1.570469e+01    1.796423e+03
  1.575781e+01    1.792646e+03
  1.581093e+01    1.789484e+03
  1.586405e+01    1.787807e+03
  1.591716e+01    1.781102e+03
  1.597028e+01    1.776497e+03
  1.602340e+01    1.762056e+03
  1.607652e+01    1.750317e+03
  1.612964e+01    1.726778e+03
  1.618276e+01    1.714904e+03
  1.623587e+01    1.717992e+03
  1.628899e+01    1.733149e+03
  1.634211e+01    1.731858e+03
  1.639523e+01    1.725517e+03
  1.644835e+01    1.727289e+03
  1.650146e+01    1.722244e+03
  1.655458e+01    1.718389e+03
  1.660770e+01    1.713944e+03
  1.666082e+01    1.709849e+03
  1.671394e+01    1.709455e+03
  1.676706e+01    1.705629e+03
  1.682017e+01    1.718240e+03
  1.687329e+01    1.707220e+03
  1.692641e+01    1.701821e+03
  1.697953e+01    1.697299e+03
  1.703265e+01    1.692509e+03
  1.708576e+01    1.689039e+03
  1.713888e+01    1.682205e+03
  1.719200e+01    1.680895e+03
  1.724512e+01    1.673085e+03
  1.729824e+01    1.673981e+03
  1.735136e+01    1.667621e+03
  1.740447e+01    1.645597e+03
  1.745759e+01    1.652631e+03
  1.751071e+01    1.654947e+03
  1.756383e+01    1.663727e+03
  1.761695e+01    1.648914e+03
  1.767006e+01    1.643811e+03
  1.772318e+01    1.636626e+03
  1.777630e+01    1.635311e+03
  1.782942e+01    1.625895e+03
  1.788254e+01    1.622317e+03
  1.793565e+01    1.618916e+03
  1.798877e+01    1.617285e+03
  1.804189e+01    1.610335e+03
  1.809501e+01    1.605013e+03
  1.814813e+01    1.603827e+03
  1.820125e+01    1.598901e+03
  1.825436e+01    1.604209e+03
  1.830748e+01    1.597563e+03
  1.836060e+01    1.592981e+03
  1.841372e+01    1.590789e+03
  1.846684e+01    1.586979e+03
  1.851995e+01    1.565155e+03
  1.857307e+01    1.552404e+03
  1.862619e+01    1.541643e+03
  1.867931e+01    1.539379e+03
  1.873243e+01    1.558098e+03
  1.878555e+01    1.560617e+03
  1.883866e+01    1.558766e+03
  1.889178e+01    1.558060e+03
  1.894490e+01    1.570165e+03
  1.899802e+01    1.560235e+03
  1.905114e+01    1.554903e+03
  1.910425e+01    1.549864e+03
  1.915737e+01    1.545120e+03
  1.921049e+01    1.541195e+03
  1.926361e+01    1.537665e+03
  1.931673e+01    1.535057e+03
  1.936985e+01    1.533303e+03
  1.942296e+01    1.531031e+03
  1.947608e+01    1.530569e+03
  1.952920e+01    1.526615e+03
  1.958232e+01    1.526273e+03
  1.963544e+01    1.533186e+03
  1.968855e+01    1.517970e+03
  1.974167e+01    1.506776e+03
  1.979479e+01    1.511332e+03
  1.984791e+01    1.510368e+03
  1.990103e+01    1.507161e+03
  1.995414e+01    1.505504e+03
  2.000726e+01    1.502998e+03
  2.006038e+01    1.498154e+03
  2.011350e+01    1.494938e+03
  2.016662e+01    1.489860e+03
  2.021974e+01    1.491684e+03
  2.027285e+01    1.499238e+03
  2.032597e+01    1.482786e+03
  2.037909e+01    1.478349e+03
  2.043221e+01    1.473427e+03
  2.048533e+01    1.471078e+03
  2.053844e+01    1.472302e+03
  2.059156e+01    1.466029e+03
  2.064468e+01    1.463157e+03
  2.069780e+01    1.443178e+03
  2.075092e+01    1.419177e+03
  2.080404e+01    1.404454e+03
  2.085715e+01    1.424800e+03
  2.091027e+01    1.450496e+03
  2.096339e+01    1.457761e+03
  2.101651e+01    1.461536e+03
  2.106963e+01    1.466130e+03
  2.112274e+01    1.469350e+03
  2.117586e+01    1.474023e+03
  2.122898e+01    1.472161e+03
  2.128210e+01    1.472227e+03
  2.133522e+01    1.471107e+03
  2.138834e+01    1.469038e+03
  2.144145e+01    1.469276e+03
  2.149457e+01    1.470011e+03
  2.154769e+01    1.470050e+03
  2.160081e+01    1.468894e+03
  2.165393e+01    1.469219e+03
  2.170704e+01    1.469872e+03
  2.176016e+01    1.459840e+03
  2.181328e+01    1.467999e+03
  2.186640e+01    1.467939e+03
  2.191952e+01    1.466894e+03
  2.197263e+01    1.464957e+03
  2.202575e+01    1.462480e+03
  2.207887e+01    1.462399e+03
  2.213199e+01    1.460623e+03
  2.218511e+01    1.459155e+03
  2.223823e+01    1.459338e+03
  2.229134e+01    1.457290e+03
  2.234446e+01    1.456065e+03
  2.239758e+01    1.455380e+03
  2.245070e+01    1.453462e+03
  2.250382e+01    1.453130e+03
  2.255693e+01    1.450197e+03
  2.261005e+01    1.431576e+03
  2.266317e+01    1.420077e+03
  2.271629e+01    1.412809e+03
  2.276941e+01    1.401988e+03
  2.282253e+01    1.394422e+03
  2.287564e+01    1.391133e+03
  2.292876e+01    1.385404e+03
  2.298188e+01    1.382432e+03
  2.303500e+01    1.380261e+03
  2.308812e+01    1.377436e+03
  2.314123e+01    1.376329e+03
  2.319435e+01    1.371129e+03
  2.324747e+01    1.365248e+03
  2.330059e+01    1.362900e+03
  2.335371e+01    1.359652e+03
  2.340683e+01    1.354926e+03
  2.345994e+01    1.350167e+03
  2.351306e+01    1.347511e+03
  2.356618e+01    1.345037e+03
  2.361930e+01    1.340302e+03
  2.367242e+01    1.334195e+03
  2.372553e+01    1.329518e+03
  2.377865e+01    1.323569e+03
  2.383177e+01    1.317331e+03
  2.388489e+01    1.311042e+03
  2.393801e+01    1.307957e+03
  2.399113e+01    1.306702e+03
  2.404424e+01    1.305997e+03
  2.409736e+01    1.302179e+03
  2.415048e+01    1.300066e+03
  2.420360e+01    1.296988e+03
  2.425672e+01    1.292640e+03
  2.430983e+01    1.289536e+03
  2.436295e+01    1.288272e+03
  2.441607e+01    1.285573e+03
  2.446919e+01    1.283339e+03
  2.452231e+01    1.281966e+03
  2.457542e+01    1.278766e+03
  2.462854e+01    1.277160e+03
  2.468166e+01    1.277109e+03
  2.473478e+01    1.272066e+03
  2.478790e+01    1.265841e+03
  2.484102e+01    1.261126e+03
  2.489413e+01    1.256246e+03
  2.494725e+01    1.252827e+03
  2.500037e+01    1.249477e+03
  2.505349e+01    1.245272e+03
  2.510661e+01    1.239041e+03
  2.515972e+01    1.235104e+03
  2.521284e+01    1.234937e+03
  2.526596e+01    1.235611e+03
  2.531908e+01    1.229210e+03
  2.537220e+01    1.229327e+03
  2.542532e+01    1.224525e+03
  2.547843e+01    1.223136e+03
  2.553155e+01    1.216882e+03
  2.558467e+01    1.211425e+03
  2.563779e+01    1.203462e+03
  2.569091e+01    1.200040e+03
  2.574402e+01    1.188672e+03
  2.579714e+01    1.186430e+03
  2.585026e+01    1.173565e+03
  2.590338e+01    1.169345e+03
  2.595650e+01    1.166590e+03
  2.600962e+01    1.164730e+03
  2.606273e+01    1.165009e+03
  2.611585e+01    1.162939e+03
  2.616897e+01    1.159902e+03
  2.622209e+01    1.164984e+03
  2.627521e+01    1.155845e+03
  2.632832e+01    1.145583e+03
  2.638144e+01    1.150680e+03
  2.643456e+01    1.138050e+03
  2.648768e+01    1.120132e+03
  2.654080e+01    1.100915e+03
