# == pyFAI calibration ==
# Distance Sample to Detector: 0.2946421923531691 m
# PONI: 2.875e-01, 2.439e-01 m
# Rotations: -0.010990 -0.009181 0.000003 rad
# 
# == Fit2d calibration ==
# Distance Sample-beamCenter: 294.672 mm
# Center: x=1436.809, y=1655.851 pix
# Tilt: 0.820 deg  TiltPlanRot: -39.874 deg
# 
# Detector Pilatus 2M	 PixelSize= 1.720e-04, 1.720e-04 m
#    Detector has a mask: True 
#    Detector has a dark current: False 
#    detector has a flat field: False 
# 
# Wavelength: 2.0732883349524408e-11 m
# Mask applied: from detector
# Dark current applied: False
# Flat field applied: False
# Polarization factor: None
# Normalization factor: 1.0
# --> /gpfs/current/raw/FMue_3/FMue_3_20231024_175355_00067.dat
#        q_A^-1             I 
  3.483473e-02             nan
  8.795289e-02             nan
  1.410711e-01             nan
  1.941892e-01             nan
  2.473074e-01             nan
  3.004255e-01             nan
  3.535437e-01             nan
  4.066619e-01    1.297330e+04
  4.597800e-01    1.196430e+04
  5.128982e-01    1.036095e+04
  5.660163e-01    9.526755e+03
  6.191345e-01    9.241760e+03
  6.722527e-01    9.158753e+03
  7.253708e-01    9.301632e+03
  7.784890e-01    9.606752e+03
  8.316071e-01    1.036702e+04
  8.847253e-01    1.160566e+04
  9.378435e-01    1.289999e+04
  9.909616e-01    1.299925e+04
  1.044080e+00    1.171535e+04
  1.097198e+00    1.063176e+04
  1.150316e+00    1.072121e+04
  1.203434e+00    1.134722e+04
  1.256552e+00    1.228907e+04
  1.309671e+00    1.292529e+04
  1.362789e+00    1.385012e+04
  1.415907e+00    1.454061e+04
  1.469025e+00    1.479169e+04
  1.522143e+00    1.471569e+04
  1.575261e+00    1.415968e+04
  1.628380e+00    1.344870e+04
  1.681498e+00    1.256219e+04
  1.734616e+00    1.168258e+04
  1.787734e+00    1.094522e+04
  1.840852e+00    1.036658e+04
  1.893970e+00    9.844244e+03
  1.947089e+00    9.586832e+03
  2.000207e+00    9.050872e+03
  2.053325e+00    8.295151e+03
  2.106443e+00    8.081585e+03
  2.159561e+00    8.252116e+03
  2.212679e+00    8.461812e+03
  2.265797e+00    8.770522e+03
  2.318916e+00    8.829996e+03
  2.372034e+00    8.921322e+03
  2.425152e+00    9.045961e+03
  2.478270e+00    9.032040e+03
  2.531388e+00    9.694330e+03
  2.584506e+00    1.012515e+04
  2.637625e+00    9.779620e+03
  2.690743e+00    9.133729e+03
  2.743861e+00    8.536064e+03
  2.796979e+00    7.395154e+03
  2.850097e+00    6.428101e+03
  2.903215e+00    6.066508e+03
  2.956334e+00    5.944538e+03
  3.009452e+00    6.003023e+03
  3.062570e+00    6.624055e+03
  3.115688e+00    8.498097e+03
  3.168806e+00    9.167975e+03
  3.221924e+00    7.931596e+03
  3.275043e+00    6.554805e+03
  3.328161e+00    5.948396e+03
  3.381279e+00    6.065959e+03
  3.434397e+00    5.642066e+03
  3.487515e+00    5.386606e+03
  3.540633e+00    5.308359e+03
  3.593751e+00    5.150993e+03
  3.646870e+00    5.135415e+03
  3.699988e+00    5.191172e+03
  3.753106e+00    5.320111e+03
  3.806224e+00    5.364796e+03
  3.859342e+00    5.364116e+03
  3.912460e+00    5.437212e+03
  3.965579e+00    5.617021e+03
  4.018697e+00    6.090829e+03
  4.071815e+00    6.971558e+03
  4.124933e+00    7.674517e+03
  4.178051e+00    7.457738e+03
  4.231169e+00    6.949547e+03
  4.284288e+00    6.806110e+03
  4.337406e+00    7.125563e+03
  4.390524e+00    7.782178e+03
  4.443642e+00    1.004615e+04
  4.496760e+00    1.220520e+04
  4.549878e+00    9.314368e+03
  4.602997e+00    6.275095e+03
  4.656115e+00    5.581140e+03
  4.709233e+00    5.531561e+03
  4.762351e+00    5.747620e+03
  4.815469e+00    5.691930e+03
  4.868587e+00    5.497627e+03
  4.921705e+00    5.429681e+03
  4.974824e+00    5.425739e+03
  5.027942e+00    5.354951e+03
  5.081060e+00    5.310123e+03
  5.134178e+00    5.204050e+03
  5.187296e+00    5.062717e+03
  5.240414e+00    4.877961e+03
  5.293533e+00    4.732118e+03
  5.346651e+00    4.581202e+03
  5.399769e+00    4.437985e+03
  5.452887e+00    4.438636e+03
  5.506005e+00    4.479762e+03
  5.559123e+00    4.139971e+03
  5.612242e+00    3.853695e+03
  5.665360e+00    3.750688e+03
  5.718478e+00    3.635594e+03
  5.771596e+00    3.548464e+03
  5.824714e+00    3.526875e+03
  5.877832e+00    3.560830e+03
  5.930951e+00    3.656178e+03
  5.984069e+00    3.767629e+03
  6.037187e+00    3.841621e+03
  6.090305e+00    3.835200e+03
  6.143423e+00    3.780921e+03
  6.196541e+00    3.867059e+03
  6.249660e+00    4.111548e+03
  6.302778e+00    4.204860e+03
  6.355896e+00    3.981731e+03
  6.409014e+00    3.826016e+03
  6.462132e+00    3.724644e+03
  6.515250e+00    3.611588e+03
  6.568368e+00    3.565450e+03
  6.621487e+00    3.516998e+03
  6.674605e+00    3.477586e+03
  6.727723e+00    3.496939e+03
  6.780841e+00    3.479131e+03
  6.833959e+00    3.430772e+03
  6.887077e+00    3.381146e+03
  6.940196e+00    3.342063e+03
  6.993314e+00    3.385552e+03
  7.046432e+00    3.455540e+03
  7.099550e+00    3.424015e+03
  7.152668e+00    3.365925e+03
  7.205786e+00    3.294286e+03
  7.258905e+00    3.217784e+03
  7.312023e+00    3.180319e+03
  7.365141e+00    3.171135e+03
  7.418259e+00    3.187562e+03
  7.471377e+00    3.213355e+03
  7.524495e+00    3.243417e+03
  7.577614e+00    3.269719e+03
  7.630732e+00    3.285353e+03
  7.683850e+00    3.414583e+03
  7.736968e+00    3.640002e+03
  7.790086e+00    3.649051e+03
  7.843204e+00    3.434122e+03
  7.896322e+00    3.211519e+03
  7.949441e+00    3.081981e+03
  8.002559e+00    3.035129e+03
  8.055677e+00    3.037583e+03
  8.108795e+00    3.057979e+03
  8.161913e+00    3.095110e+03
  8.215031e+00    3.091483e+03
  8.268150e+00    3.050458e+03
  8.321268e+00    3.010406e+03
  8.374386e+00    2.983661e+03
  8.427504e+00    2.969402e+03
  8.480622e+00    2.949237e+03
  8.533740e+00    2.891381e+03
  8.586859e+00    2.915979e+03
  8.639977e+00    2.910137e+03
  8.693095e+00    2.888177e+03
  8.746213e+00    2.877734e+03
  8.799331e+00    2.848663e+03
  8.852449e+00    2.835737e+03
  8.905568e+00    2.856054e+03
  8.958686e+00    2.870774e+03
  9.011804e+00    2.875526e+03
  9.064922e+00    2.804845e+03
  9.118040e+00    2.717703e+03
  9.171158e+00    2.677237e+03
  9.224276e+00    2.663412e+03
  9.277395e+00    2.640073e+03
  9.330513e+00    2.632249e+03
  9.383631e+00    2.631370e+03
  9.436749e+00    2.626958e+03
  9.489867e+00    2.635012e+03
  9.542985e+00    2.623947e+03
  9.596104e+00    2.594519e+03
  9.649222e+00    2.574267e+03
  9.702340e+00    2.562273e+03
  9.755458e+00    2.555829e+03
  9.808576e+00    2.546845e+03
  9.861694e+00    2.554865e+03
  9.914813e+00    2.563112e+03
  9.967931e+00    2.556626e+03
  1.002105e+01    2.517521e+03
  1.007417e+01    2.462913e+03
  1.012729e+01    2.432378e+03
  1.018040e+01    2.434085e+03
  1.023352e+01    2.426314e+03
  1.028664e+01    2.411000e+03
  1.033976e+01    2.404577e+03
  1.039288e+01    2.423912e+03
  1.044599e+01    2.414203e+03
  1.049911e+01    2.408595e+03
  1.055223e+01    2.387586e+03
  1.060535e+01    2.383407e+03
  1.065847e+01    2.376127e+03
  1.071158e+01    2.371238e+03
  1.076470e+01    2.362443e+03
  1.081782e+01    2.363391e+03
  1.087094e+01    2.349442e+03
  1.092406e+01    2.351207e+03
  1.097718e+01    2.346299e+03
  1.103029e+01    2.340839e+03
  1.108341e+01    2.328607e+03
  1.113653e+01    2.312785e+03
  1.118965e+01    2.301986e+03
  1.124277e+01    2.292289e+03
  1.129588e+01    2.285675e+03
  1.134900e+01    2.274784e+03
  1.140212e+01    2.267019e+03
  1.145524e+01    2.255654e+03
  1.150836e+01    2.254111e+03
  1.156148e+01    2.244265e+03
  1.161459e+01    2.247050e+03
  1.166771e+01    2.239893e+03
  1.172083e+01    2.259581e+03
  1.177395e+01    2.251570e+03
  1.182707e+01    2.249852e+03
  1.188018e+01    2.256473e+03
  1.193330e+01    2.242121e+03
  1.198642e+01    2.225442e+03
  1.203954e+01    2.204893e+03
  1.209266e+01    2.198103e+03
  1.214578e+01    2.189657e+03
  1.219889e+01    2.190839e+03
  1.225201e+01    2.188452e+03
  1.230513e+01    2.184416e+03
  1.235825e+01    2.189673e+03
  1.241137e+01    2.178763e+03
  1.246448e+01    2.181466e+03
  1.251760e+01    2.179286e+03
  1.257072e+01    2.175519e+03
  1.262384e+01    2.179618e+03
  1.267696e+01    2.163795e+03
  1.273008e+01    2.146325e+03
  1.278319e+01    2.137638e+03
  1.283631e+01    2.126781e+03
  1.288943e+01    2.120821e+03
  1.294255e+01    2.109039e+03
  1.299567e+01    2.101034e+03
  1.304878e+01    2.092284e+03
  1.310190e+01    2.087923e+03
  1.315502e+01    2.079358e+03
  1.320814e+01    2.052500e+03
  1.326126e+01    2.025296e+03
  1.331437e+01    2.011875e+03
  1.336749e+01    2.003392e+03
  1.342061e+01    1.988450e+03
  1.347373e+01    2.015222e+03
  1.352685e+01    2.019738e+03
  1.357997e+01    2.009700e+03
  1.363308e+01    1.997194e+03
  1.368620e+01    1.987533e+03
  1.373932e+01    1.980104e+03
  1.379244e+01    1.973847e+03
  1.384556e+01    1.969316e+03
  1.389867e+01    1.959952e+03
  1.395179e+01    1.953561e+03
  1.400491e+01    1.950837e+03
  1.405803e+01    1.947786e+03
  1.411115e+01    1.939446e+03
  1.416427e+01    1.930681e+03
  1.421738e+01    1.927707e+03
  1.427050e+01    1.920665e+03
  1.432362e+01    1.923669e+03
  1.437674e+01    1.919376e+03
  1.442986e+01    1.907802e+03
  1.448297e+01    1.901465e+03
  1.453609e+01    1.894041e+03
  1.458921e+01    1.885789e+03
  1.464233e+01    1.882910e+03
  1.469545e+01    1.876942e+03
  1.474857e+01    1.856490e+03
  1.480168e+01    1.869064e+03
  1.485480e+01    1.866632e+03
  1.490792e+01    1.862960e+03
  1.496104e+01    1.854969e+03
  1.501416e+01    1.853140e+03
  1.506727e+01    1.847971e+03
  1.512039e+01    1.843369e+03
  1.517351e+01    1.855137e+03
  1.522663e+01    1.869112e+03
  1.527975e+01    1.865478e+03
  1.533286e+01    1.847277e+03
  1.538598e+01    1.838503e+03
  1.543910e+01    1.828776e+03
  1.549222e+01    1.826284e+03
  1.554534e+01    1.825846e+03
  1.559846e+01    1.824227e+03
  1.565157e+01    1.816650e+03
  1.570469e+01    1.810094e+03
  1.575781e+01    1.807192e+03
  1.581093e+01    1.802790e+03
  1.586405e+01    1.799630e+03
  1.591716e+01    1.793602e+03
  1.597028e+01    1.787983e+03
  1.602340e+01    1.773979e+03
  1.607652e+01    1.762363e+03
  1.612964e+01    1.739520e+03
  1.618276e+01    1.728462e+03
  1.623587e+01    1.732410e+03
  1.628899e+01    1.747530e+03
  1.634211e+01    1.745864e+03
  1.639523e+01    1.740447e+03
  1.644835e+01    1.741766e+03
  1.650146e+01    1.735816e+03
  1.655458e+01    1.731370e+03
  1.660770e+01    1.728258e+03
  1.666082e+01    1.723293e+03
  1.671394e+01    1.723660e+03
  1.676706e+01    1.718289e+03
  1.682017e+01    1.732394e+03
  1.687329e+01    1.720752e+03
  1.692641e+01    1.714529e+03
  1.697953e+01    1.710338e+03
  1.703265e+01    1.705667e+03
  1.708576e+01    1.703627e+03
  1.713888e+01    1.694456e+03
  1.719200e+01    1.693229e+03
  1.724512e+01    1.687374e+03
  1.729824e+01    1.687253e+03
  1.735136e+01    1.682160e+03
  1.740447e+01    1.658461e+03
  1.745759e+01    1.666712e+03
  1.751071e+01    1.666996e+03
  1.756383e+01    1.678048e+03
  1.761695e+01    1.661239e+03
  1.767006e+01    1.656455e+03
  1.772318e+01    1.648237e+03
  1.777630e+01    1.646218e+03
  1.782942e+01    1.639026e+03
  1.788254e+01    1.634274e+03
  1.793565e+01    1.632738e+03
  1.798877e+01    1.628791e+03
  1.804189e+01    1.623654e+03
  1.809501e+01    1.618250e+03
  1.814813e+01    1.615519e+03
  1.820125e+01    1.611332e+03
  1.825436e+01    1.616887e+03
  1.830748e+01    1.610360e+03
  1.836060e+01    1.605465e+03
  1.841372e+01    1.603819e+03
  1.846684e+01    1.597630e+03
  1.851995e+01    1.579029e+03
  1.857307e+01    1.563618e+03
  1.862619e+01    1.554849e+03
  1.867931e+01    1.551365e+03
  1.873243e+01    1.570363e+03
  1.878555e+01    1.572061e+03
  1.883866e+01    1.571390e+03
  1.889178e+01    1.570698e+03
  1.894490e+01    1.582355e+03
  1.899802e+01    1.573750e+03
  1.905114e+01    1.568390e+03
  1.910425e+01    1.563789e+03
  1.915737e+01    1.558253e+03
  1.921049e+01    1.553247e+03
  1.926361e+01    1.550662e+03
  1.931673e+01    1.547527e+03
  1.936985e+01    1.545787e+03
  1.942296e+01    1.542736e+03
  1.947608e+01    1.543639e+03
  1.952920e+01    1.538812e+03
  1.958232e+01    1.539841e+03
  1.963544e+01    1.544842e+03
  1.968855e+01    1.530071e+03
  1.974167e+01    1.517578e+03
  1.979479e+01    1.522915e+03
  1.984791e+01    1.520787e+03
  1.990103e+01    1.518978e+03
  1.995414e+01    1.517562e+03
  2.000726e+01    1.514737e+03
  2.006038e+01    1.509530e+03
  2.011350e+01    1.507891e+03
  2.016662e+01    1.501648e+03
  2.021974e+01    1.503676e+03
  2.027285e+01    1.510386e+03
  2.032597e+01    1.494058e+03
  2.037909e+01    1.490231e+03
  2.043221e+01    1.485484e+03
  2.048533e+01    1.484134e+03
  2.053844e+01    1.483649e+03
  2.059156e+01    1.476749e+03
  2.064468e+01    1.473732e+03
  2.069780e+01    1.454852e+03
  2.075092e+01    1.430014e+03
  2.080404e+01    1.416063e+03
  2.085715e+01    1.435243e+03
  2.091027e+01    1.462320e+03
  2.096339e+01    1.468899e+03
  2.101651e+01    1.474587e+03
  2.106963e+01    1.478576e+03
  2.112274e+01    1.482590e+03
  2.117586e+01    1.483545e+03
  2.122898e+01    1.486528e+03
  2.128210e+01    1.484199e+03
  2.133522e+01    1.483870e+03
  2.138834e+01    1.482276e+03
  2.144145e+01    1.482357e+03
  2.149457e+01    1.482096e+03
  2.154769e+01    1.482080e+03
  2.160081e+01    1.480663e+03
  2.165393e+01    1.481383e+03
  2.170704e+01    1.482474e+03
  2.176016e+01    1.470737e+03
  2.181328e+01    1.479111e+03
  2.186640e+01    1.481566e+03
  2.191952e+01    1.479966e+03
  2.197263e+01    1.478645e+03
  2.202575e+01    1.474715e+03
  2.207887e+01    1.475112e+03
  2.213199e+01    1.473185e+03
  2.218511e+01    1.471909e+03
  2.223823e+01    1.470837e+03
  2.229134e+01    1.469921e+03
  2.234446e+01    1.468220e+03
  2.239758e+01    1.467568e+03
  2.245070e+01    1.464593e+03
  2.250382e+01    1.467887e+03
  2.255693e+01    1.462229e+03
  2.261005e+01    1.445517e+03
  2.266317e+01    1.432581e+03
  2.271629e+01    1.423146e+03
  2.276941e+01    1.414082e+03
  2.282253e+01    1.406737e+03
  2.287564e+01    1.403981e+03
  2.292876e+01    1.396625e+03
  2.298188e+01    1.395583e+03
  2.303500e+01    1.392270e+03
  2.308812e+01    1.390211e+03
  2.314123e+01    1.388511e+03
  2.319435e+01    1.384402e+03
  2.324747e+01    1.376504e+03
  2.330059e+01    1.373909e+03
  2.335371e+01    1.370491e+03
  2.340683e+01    1.366622e+03
  2.345994e+01    1.363034e+03
  2.351306e+01    1.360250e+03
  2.356618e+01    1.354674e+03
  2.361930e+01    1.350740e+03
  2.367242e+01    1.345205e+03
  2.372553e+01    1.339741e+03
  2.377865e+01    1.334051e+03
  2.383177e+01    1.327461e+03
  2.388489e+01    1.323642e+03
  2.393801e+01    1.319106e+03
  2.399113e+01    1.319725e+03
  2.404424e+01    1.318302e+03
  2.409736e+01    1.315199e+03
  2.415048e+01    1.311896e+03
  2.420360e+01    1.309741e+03
  2.425672e+01    1.304113e+03
  2.430983e+01    1.301336e+03
  2.436295e+01    1.298929e+03
  2.441607e+01    1.295947e+03
  2.446919e+01    1.295888e+03
  2.452231e+01    1.294167e+03
  2.457542e+01    1.292591e+03
  2.462854e+01    1.288301e+03
  2.468166e+01    1.289136e+03
  2.473478e+01    1.284457e+03
  2.478790e+01    1.274353e+03
  2.484102e+01    1.273459e+03
  2.489413e+01    1.266274e+03
  2.494725e+01    1.264951e+03
  2.500037e+01    1.262046e+03
  2.505349e+01    1.254891e+03
  2.510661e+01    1.251217e+03
  2.515972e+01    1.246918e+03
  2.521284e+01    1.245653e+03
  2.526596e+01    1.243555e+03
  2.531908e+01    1.237291e+03
  2.537220e+01    1.238518e+03
  2.542532e+01    1.232590e+03
  2.547843e+01    1.235385e+03
  2.553155e+01    1.228114e+03
  2.558467e+01    1.220150e+03
  2.563779e+01    1.212172e+03
  2.569091e+01    1.206663e+03
  2.574402e+01    1.196911e+03
  2.579714e+01    1.189878e+03
  2.585026e+01    1.186560e+03
  2.590338e+01    1.176107e+03
  2.595650e+01    1.176352e+03
  2.600962e+01    1.173181e+03
  2.606273e+01    1.176227e+03
  2.611585e+01    1.176684e+03
  2.616897e+01    1.173261e+03
  2.622209e+01    1.168193e+03
  2.627521e+01    1.172195e+03
  2.632832e+01    1.154964e+03
  2.638144e+01    1.157285e+03
  2.643456e+01    1.153407e+03
  2.648768e+01    1.139627e+03
  2.654080e+01    1.096460e+03
