# == pyFAI calibration ==
# Distance Sample to Detector: 0.2946421923531691 m
# PONI: 2.875e-01, 2.439e-01 m
# Rotations: -0.010990 -0.009181 0.000003 rad
# 
# == Fit2d calibration ==
# Distance Sample-beamCenter: 294.672 mm
# Center: x=1436.809, y=1655.851 pix
# Tilt: 0.820 deg  TiltPlanRot: -39.874 deg
# 
# Detector Pilatus 2M	 PixelSize= 1.720e-04, 1.720e-04 m
#    Detector has a mask: True 
#    Detector has a dark current: False 
#    detector has a flat field: False 
# 
# Wavelength: 2.0732883349524408e-11 m
# Mask applied: from detector
# Dark current applied: False
# Flat field applied: False
# Polarization factor: None
# Normalization factor: 1.0
# --> /gpfs/current/raw/FMue_3/FMue_3_20231024_175355_00007.dat
#        q_A^-1             I 
  3.483473e-02             nan
  8.795289e-02             nan
  1.410711e-01             nan
  1.941892e-01             nan
  2.473074e-01             nan
  3.004255e-01             nan
  3.535437e-01             nan
  4.066619e-01    9.425971e+03
  4.597800e-01    9.022169e+03
  5.128982e-01    8.116172e+03
  5.660163e-01    7.797707e+03
  6.191345e-01    7.820158e+03
  6.722527e-01    7.968684e+03
  7.253708e-01    8.331423e+03
  7.784890e-01    1.357307e+04
  8.316071e-01    2.705398e+04
  8.847253e-01    1.637807e+04
  9.378435e-01    9.317472e+03
  9.909616e-01    9.884890e+03
  1.044080e+00    1.008003e+04
  1.097198e+00    9.887042e+03
  1.150316e+00    1.027153e+04
  1.203434e+00    1.095062e+04
  1.256552e+00    1.197266e+04
  1.309671e+00    1.293993e+04
  1.362789e+00    1.378949e+04
  1.415907e+00    1.447753e+04
  1.469025e+00    1.470290e+04
  1.522143e+00    1.463423e+04
  1.575261e+00    1.416814e+04
  1.628380e+00    1.621141e+04
  1.681498e+00    1.794356e+04
  1.734616e+00    1.256104e+04
  1.787734e+00    1.053110e+04
  1.840852e+00    9.788866e+03
  1.893970e+00    9.251634e+03
  1.947089e+00    9.172652e+03
  2.000207e+00    8.805087e+03
  2.053325e+00    8.090722e+03
  2.106443e+00    7.843303e+03
  2.159561e+00    7.967033e+03
  2.212679e+00    8.143488e+03
  2.265797e+00    8.362163e+03
  2.318916e+00    8.226572e+03
  2.372034e+00    8.770783e+03
  2.425152e+00    1.346654e+04
  2.478270e+00    9.497573e+03
  2.531388e+00    8.085238e+03
  2.584506e+00    8.874393e+03
  2.637625e+00    8.756130e+03
  2.690743e+00    9.118015e+03
  2.743861e+00    1.257287e+04
  2.796979e+00    8.268331e+03
  2.850097e+00    5.843433e+03
  2.903215e+00    5.409547e+03
  2.956334e+00    5.236866e+03
  3.009452e+00    5.345987e+03
  3.062570e+00    6.173796e+03
  3.115688e+00    7.823935e+03
  3.168806e+00    8.827042e+03
  3.221924e+00    1.062457e+04
  3.275043e+00    9.990886e+03
  3.328161e+00    6.248632e+03
  3.381279e+00    5.975526e+03
  3.434397e+00    5.348117e+03
  3.487515e+00    5.041324e+03
  3.540633e+00    4.975728e+03
  3.593751e+00    5.085196e+03
  3.646870e+00    6.271428e+03
  3.699988e+00    5.572768e+03
  3.753106e+00    4.931379e+03
  3.806224e+00    5.103096e+03
  3.859342e+00    5.880354e+03
  3.912460e+00    5.603925e+03
  3.965579e+00    5.131920e+03
  4.018697e+00    5.443972e+03
  4.071815e+00    7.355061e+03
  4.124933e+00    8.091744e+03
  4.178051e+00    8.714337e+03
  4.231169e+00    6.900537e+03
  4.284288e+00    6.407624e+03
  4.337406e+00    7.265938e+03
  4.390524e+00    7.820948e+03
  4.443642e+00    1.024108e+04
  4.496760e+00    1.195435e+04
  4.549878e+00    9.639277e+03
  4.602997e+00    6.253577e+03
  4.656115e+00    5.202474e+03
  4.709233e+00    5.306569e+03
  4.762351e+00    6.025764e+03
  4.815469e+00    5.732222e+03
  4.868587e+00    5.329216e+03
  4.921705e+00    5.768526e+03
  4.974824e+00    5.672306e+03
  5.027942e+00    5.859738e+03
  5.081060e+00    5.737274e+03
  5.134178e+00    5.233421e+03
  5.187296e+00    5.112517e+03
  5.240414e+00    5.326282e+03
  5.293533e+00    4.947394e+03
  5.346651e+00    4.518740e+03
  5.399769e+00    4.301334e+03
  5.452887e+00    4.417578e+03
  5.506005e+00    4.615520e+03
  5.559123e+00    4.101111e+03
  5.612242e+00    3.925682e+03
  5.665360e+00    3.858645e+03
  5.718478e+00    3.548546e+03
  5.771596e+00    3.559029e+03
  5.824714e+00    3.701258e+03
  5.877832e+00    3.661024e+03
  5.930951e+00    3.721893e+03
  5.984069e+00    3.868007e+03
  6.037187e+00    3.776046e+03
  6.090305e+00    3.773506e+03
  6.143423e+00    3.725382e+03
  6.196541e+00    3.707893e+03
  6.249660e+00    4.205135e+03
  6.302778e+00    4.366684e+03
  6.355896e+00    3.982905e+03
  6.409014e+00    4.158009e+03
  6.462132e+00    4.048498e+03
  6.515250e+00    3.893438e+03
  6.568368e+00    3.697723e+03
  6.621487e+00    3.703769e+03
  6.674605e+00    3.667096e+03
  6.727723e+00    3.456851e+03
  6.780841e+00    3.381089e+03
  6.833959e+00    3.460010e+03
  6.887077e+00    3.392751e+03
  6.940196e+00    3.369584e+03
  6.993314e+00    3.455132e+03
  7.046432e+00    3.430093e+03
  7.099550e+00    3.704615e+03
  7.152668e+00    3.778826e+03
  7.205786e+00    3.461208e+03
  7.258905e+00    3.364367e+03
  7.312023e+00    3.228757e+03
  7.365141e+00    3.149249e+03
  7.418259e+00    3.117866e+03
  7.471377e+00    3.122466e+03
  7.524495e+00    3.236357e+03
  7.577614e+00    3.256752e+03
  7.630732e+00    3.315302e+03
  7.683850e+00    3.519099e+03
  7.736968e+00    3.695903e+03
  7.790086e+00    3.760264e+03
  7.843204e+00    3.672962e+03
  7.896322e+00    3.311887e+03
  7.949441e+00    3.070178e+03
  8.002559e+00    3.004847e+03
  8.055677e+00    2.986500e+03
  8.108795e+00    3.013316e+03
  8.161913e+00    3.147337e+03
  8.215031e+00    3.324406e+03
  8.268150e+00    3.160042e+03
  8.321268e+00    3.012305e+03
  8.374386e+00    3.052331e+03
  8.427504e+00    3.002350e+03
  8.480622e+00    2.954199e+03
  8.533740e+00    3.001958e+03
  8.586859e+00    3.058827e+03
  8.639977e+00    3.040875e+03
  8.693095e+00    2.982140e+03
  8.746213e+00    2.947887e+03
  8.799331e+00    2.936496e+03
  8.852449e+00    2.895094e+03
  8.905568e+00    2.866756e+03
  8.958686e+00    2.931362e+03
  9.011804e+00    2.943839e+03
  9.064922e+00    2.885736e+03
  9.118040e+00    2.758158e+03
  9.171158e+00    2.746263e+03
  9.224276e+00    2.780571e+03
  9.277395e+00    2.731619e+03
  9.330513e+00    2.689386e+03
  9.383631e+00    2.692703e+03
  9.436749e+00    2.663507e+03
  9.489867e+00    2.683818e+03
  9.542985e+00    2.700403e+03
  9.596104e+00    2.707949e+03
  9.649222e+00    2.661538e+03
  9.702340e+00    2.625386e+03
  9.755458e+00    2.643280e+03
  9.808576e+00    2.599826e+03
  9.861694e+00    2.587603e+03
  9.914813e+00    2.595244e+03
  9.967931e+00    2.605899e+03
  1.002105e+01    2.589703e+03
  1.007417e+01    2.548145e+03
  1.012729e+01    2.491273e+03
  1.018040e+01    2.479493e+03
  1.023352e+01    2.482465e+03
  1.028664e+01    2.470934e+03
  1.033976e+01    2.492350e+03
  1.039288e+01    2.505151e+03
  1.044599e+01    2.472713e+03
  1.049911e+01    2.477220e+03
  1.055223e+01    2.474780e+03
  1.060535e+01    2.455698e+03
  1.065847e+01    2.436390e+03
  1.071158e+01    2.428451e+03
  1.076470e+01    2.414919e+03
  1.081782e+01    2.443362e+03
  1.087094e+01    2.466661e+03
  1.092406e+01    2.447854e+03
  1.097718e+01    2.432388e+03
  1.103029e+01    2.397513e+03
  1.108341e+01    2.374631e+03
  1.113653e+01    2.371823e+03
  1.118965e+01    2.351645e+03
  1.124277e+01    2.342064e+03
  1.129588e+01    2.337192e+03
  1.134900e+01    2.338286e+03
  1.140212e+01    2.317529e+03
  1.145524e+01    2.290059e+03
  1.150836e+01    2.285607e+03
  1.156148e+01    2.292010e+03
  1.161459e+01    2.308489e+03
  1.166771e+01    2.293720e+03
  1.172083e+01    2.309625e+03
  1.177395e+01    2.298665e+03
  1.182707e+01    2.301566e+03
  1.188018e+01    2.317400e+03
  1.193330e+01    2.312096e+03
  1.198642e+01    2.293495e+03
  1.203954e+01    2.267003e+03
  1.209266e+01    2.252559e+03
  1.214578e+01    2.244677e+03
  1.219889e+01    2.243682e+03
  1.225201e+01    2.251102e+03
  1.230513e+01    2.269615e+03
  1.235825e+01    2.275118e+03
  1.241137e+01    2.253657e+03
  1.246448e+01    2.246869e+03
  1.251760e+01    2.254086e+03
  1.257072e+01    2.252918e+03
  1.262384e+01    2.249348e+03
  1.267696e+01    2.233721e+03
  1.273008e+01    2.224753e+03
  1.278319e+01    2.205606e+03
  1.283631e+01    2.185002e+03
  1.288943e+01    2.178188e+03
  1.294255e+01    2.166886e+03
  1.299567e+01    2.160804e+03
  1.304878e+01    2.149253e+03
  1.310190e+01    2.147969e+03
  1.315502e+01    2.148900e+03
  1.320814e+01    2.126771e+03
  1.326126e+01    2.093965e+03
  1.331437e+01    2.073880e+03
  1.336749e+01    2.060485e+03
  1.342061e+01    2.044947e+03
  1.347373e+01    2.068962e+03
  1.352685e+01    2.073973e+03
  1.357997e+01    2.066919e+03
  1.363308e+01    2.059966e+03
  1.368620e+01    2.047441e+03
  1.373932e+01    2.030842e+03
  1.379244e+01    2.018643e+03
  1.384556e+01    2.012127e+03
  1.389867e+01    2.009382e+03
  1.395179e+01    2.007116e+03
  1.400491e+01    2.004862e+03
  1.405803e+01    1.998098e+03
  1.411115e+01    1.988856e+03
  1.416427e+01    1.984427e+03
  1.421738e+01    1.983465e+03
  1.427050e+01    1.976783e+03
  1.432362e+01    1.979451e+03
  1.437674e+01    1.980329e+03
  1.442986e+01    1.971937e+03
  1.448297e+01    1.961869e+03
  1.453609e+01    1.951873e+03
  1.458921e+01    1.942569e+03
  1.464233e+01    1.936191e+03
  1.469545e+01    1.932333e+03
  1.474857e+01    1.918153e+03
  1.480168e+01    1.935476e+03
  1.485480e+01    1.930288e+03
  1.490792e+01    1.922861e+03
  1.496104e+01    1.911589e+03
  1.501416e+01    1.907573e+03
  1.506727e+01    1.902967e+03
  1.512039e+01    1.898661e+03
  1.517351e+01    1.910112e+03
  1.522663e+01    1.921562e+03
  1.527975e+01    1.920025e+03
  1.533286e+01    1.906000e+03
  1.538598e+01    1.893263e+03
  1.543910e+01    1.881446e+03
  1.549222e+01    1.878802e+03
  1.554534e+01    1.883746e+03
  1.559846e+01    1.882538e+03
  1.565157e+01    1.875492e+03
  1.570469e+01    1.867157e+03
  1.575781e+01    1.860803e+03
  1.581093e+01    1.857121e+03
  1.586405e+01    1.855951e+03
  1.591716e+01    1.848337e+03
  1.597028e+01    1.841259e+03
  1.602340e+01    1.823116e+03
  1.607652e+01    1.813987e+03
  1.612964e+01    1.789300e+03
  1.618276e+01    1.777334e+03
  1.623587e+01    1.780573e+03
  1.628899e+01    1.797715e+03
  1.634211e+01    1.796698e+03
  1.639523e+01    1.791650e+03
  1.644835e+01    1.796114e+03
  1.650146e+01    1.791133e+03
  1.655458e+01    1.789750e+03
  1.660770e+01    1.786181e+03
  1.666082e+01    1.778077e+03
  1.671394e+01    1.777829e+03
  1.676706e+01    1.772579e+03
  1.682017e+01    1.786218e+03
  1.687329e+01    1.775320e+03
  1.692641e+01    1.768514e+03
  1.697953e+01    1.763882e+03
  1.703265e+01    1.759818e+03
  1.708576e+01    1.757525e+03
  1.713888e+01    1.750533e+03
  1.719200e+01    1.747252e+03
  1.724512e+01    1.737740e+03
  1.729824e+01    1.738181e+03
  1.735136e+01    1.733441e+03
  1.740447e+01    1.710116e+03
  1.745759e+01    1.717200e+03
  1.751071e+01    1.717604e+03
  1.756383e+01    1.726969e+03
  1.761695e+01    1.710598e+03
  1.767006e+01    1.706649e+03
  1.772318e+01    1.698034e+03
  1.777630e+01    1.696948e+03
  1.782942e+01    1.689883e+03
  1.788254e+01    1.687032e+03
  1.793565e+01    1.683942e+03
  1.798877e+01    1.680724e+03
  1.804189e+01    1.673170e+03
  1.809501e+01    1.669182e+03
  1.814813e+01    1.665804e+03
  1.820125e+01    1.660190e+03
  1.825436e+01    1.667839e+03
  1.830748e+01    1.660399e+03
  1.836060e+01    1.654653e+03
  1.841372e+01    1.653516e+03
  1.846684e+01    1.650929e+03
  1.851995e+01    1.630311e+03
  1.857307e+01    1.613311e+03
  1.862619e+01    1.604118e+03
  1.867931e+01    1.600197e+03
  1.873243e+01    1.619841e+03
  1.878555e+01    1.623313e+03
  1.883866e+01    1.623095e+03
  1.889178e+01    1.622430e+03
  1.894490e+01    1.633411e+03
  1.899802e+01    1.624088e+03
  1.905114e+01    1.617428e+03
  1.910425e+01    1.611259e+03
  1.915737e+01    1.607409e+03
  1.921049e+01    1.603241e+03
  1.926361e+01    1.599391e+03
  1.931673e+01    1.596153e+03
  1.936985e+01    1.593901e+03
  1.942296e+01    1.591124e+03
  1.947608e+01    1.590963e+03
  1.952920e+01    1.586821e+03
  1.958232e+01    1.588121e+03
  1.963544e+01    1.593978e+03
  1.968855e+01    1.576723e+03
  1.974167e+01    1.565871e+03
  1.979479e+01    1.570573e+03
  1.984791e+01    1.568048e+03
  1.990103e+01    1.565706e+03
  1.995414e+01    1.564855e+03
  2.000726e+01    1.562032e+03
  2.006038e+01    1.558250e+03
  2.011350e+01    1.553520e+03
  2.016662e+01    1.547526e+03
  2.021974e+01    1.551276e+03
  2.027285e+01    1.557758e+03
  2.032597e+01    1.541511e+03
  2.037909e+01    1.536236e+03
  2.043221e+01    1.532167e+03
  2.048533e+01    1.531142e+03
  2.053844e+01    1.529330e+03
  2.059156e+01    1.524632e+03
  2.064468e+01    1.522628e+03
  2.069780e+01    1.502252e+03
  2.075092e+01    1.477061e+03
  2.080404e+01    1.461152e+03
  2.085715e+01    1.482114e+03
  2.091027e+01    1.509599e+03
  2.096339e+01    1.517396e+03
  2.101651e+01    1.522175e+03
  2.106963e+01    1.525981e+03
  2.112274e+01    1.529408e+03
  2.117586e+01    1.530789e+03
  2.122898e+01    1.534486e+03
  2.128210e+01    1.530754e+03
  2.133522e+01    1.531778e+03
  2.138834e+01    1.529946e+03
  2.144145e+01    1.530225e+03
  2.149457e+01    1.530492e+03
  2.154769e+01    1.529485e+03
  2.160081e+01    1.528046e+03
  2.165393e+01    1.529977e+03
  2.170704e+01    1.529996e+03
  2.176016e+01    1.519089e+03
  2.181328e+01    1.528422e+03
  2.186640e+01    1.528599e+03
  2.191952e+01    1.526766e+03
  2.197263e+01    1.523696e+03
  2.202575e+01    1.523008e+03
  2.207887e+01    1.522240e+03
  2.213199e+01    1.519092e+03
  2.218511e+01    1.517929e+03
  2.223823e+01    1.517804e+03
  2.229134e+01    1.513803e+03
  2.234446e+01    1.513789e+03
  2.239758e+01    1.514636e+03
  2.245070e+01    1.511464e+03
  2.250382e+01    1.513018e+03
  2.255693e+01    1.510280e+03
  2.261005e+01    1.491878e+03
  2.266317e+01    1.478934e+03
  2.271629e+01    1.468614e+03
  2.276941e+01    1.458824e+03
  2.282253e+01    1.451647e+03
  2.287564e+01    1.447754e+03
  2.292876e+01    1.441889e+03
  2.298188e+01    1.439686e+03
  2.303500e+01    1.435879e+03
  2.308812e+01    1.433169e+03
  2.314123e+01    1.432621e+03
  2.319435e+01    1.426947e+03
  2.324747e+01    1.421067e+03
  2.330059e+01    1.416418e+03
  2.335371e+01    1.414527e+03
  2.340683e+01    1.409747e+03
  2.345994e+01    1.406454e+03
  2.351306e+01    1.404022e+03
  2.356618e+01    1.399928e+03
  2.361930e+01    1.393878e+03
  2.367242e+01    1.387721e+03
  2.372553e+01    1.382339e+03
  2.377865e+01    1.377220e+03
  2.383177e+01    1.371434e+03
  2.388489e+01    1.368691e+03
  2.393801e+01    1.364425e+03
  2.399113e+01    1.362591e+03
  2.404424e+01    1.358331e+03
  2.409736e+01    1.357925e+03
  2.415048e+01    1.353270e+03
  2.420360e+01    1.351327e+03
  2.425672e+01    1.347747e+03
  2.430983e+01    1.342327e+03
  2.436295e+01    1.340161e+03
  2.441607e+01    1.338111e+03
  2.446919e+01    1.338139e+03
  2.452231e+01    1.335399e+03
  2.457542e+01    1.332876e+03
  2.462854e+01    1.330058e+03
  2.468166e+01    1.329889e+03
  2.473478e+01    1.322881e+03
  2.478790e+01    1.319338e+03
  2.484102e+01    1.313931e+03
  2.489413e+01    1.310815e+03
  2.494725e+01    1.305783e+03
  2.500037e+01    1.300014e+03
  2.505349e+01    1.293558e+03
  2.510661e+01    1.292264e+03
  2.515972e+01    1.289846e+03
  2.521284e+01    1.288180e+03
  2.526596e+01    1.285794e+03
  2.531908e+01    1.274557e+03
  2.537220e+01    1.278861e+03
  2.542532e+01    1.274452e+03
  2.547843e+01    1.274139e+03
  2.553155e+01    1.266891e+03
  2.558467e+01    1.261419e+03
  2.563779e+01    1.249154e+03
  2.569091e+01    1.247652e+03
  2.574402e+01    1.239931e+03
  2.579714e+01    1.226709e+03
  2.585026e+01    1.221874e+03
  2.590338e+01    1.215263e+03
  2.595650e+01    1.214260e+03
  2.600962e+01    1.212244e+03
  2.606273e+01    1.213020e+03
  2.611585e+01    1.210471e+03
  2.616897e+01    1.211106e+03
  2.622209e+01    1.206988e+03
  2.627521e+01    1.202967e+03
  2.632832e+01    1.191949e+03
  2.638144e+01    1.192132e+03
  2.643456e+01    1.184725e+03
  2.648768e+01    1.167447e+03
  2.654080e+01    1.145660e+03
