# == pyFAI calibration ==
# Distance Sample to Detector: 0.2946421923531691 m
# PONI: 2.875e-01, 2.439e-01 m
# Rotations: -0.010990 -0.009181 0.000003 rad
# 
# == Fit2d calibration ==
# Distance Sample-beamCenter: 294.672 mm
# Center: x=1436.809, y=1655.851 pix
# Tilt: 0.820 deg  TiltPlanRot: -39.874 deg
# 
# Detector Pilatus 2M	 PixelSize= 1.720e-04, 1.720e-04 m
#    Detector has a mask: True 
#    Detector has a dark current: False 
#    detector has a flat field: False 
# 
# Wavelength: 2.0732883349524408e-11 m
# Mask applied: from detector
# Dark current applied: False
# Flat field applied: False
# Polarization factor: None
# Normalization factor: 1.0
# --> /gpfs/current/raw/FMue_3/FMue_3_20231024_175355_00077.dat
#        q_A^-1             I 
  3.483473e-02             nan
  8.795289e-02             nan
  1.410711e-01             nan
  1.941892e-01             nan
  2.473074e-01             nan
  3.004255e-01             nan
  3.535437e-01             nan
  4.066619e-01    1.494909e+04
  4.597800e-01    1.338315e+04
  5.128982e-01    1.118002e+04
  5.660163e-01    9.961709e+03
  6.191345e-01    9.370241e+03
  6.722527e-01    9.043417e+03
  7.253708e-01    8.911854e+03
  7.784890e-01    8.854673e+03
  8.316071e-01    8.969437e+03
  8.847253e-01    9.115633e+03
  9.378435e-01    9.542138e+03
  9.909616e-01    1.028102e+04
  1.044080e+00    1.039629e+04
  1.097198e+00    1.013263e+04
  1.150316e+00    1.051150e+04
  1.203434e+00    1.131925e+04
  1.256552e+00    1.232387e+04
  1.309671e+00    1.297003e+04
  1.362789e+00    1.395084e+04
  1.415907e+00    1.458577e+04
  1.469025e+00    1.480854e+04
  1.522143e+00    1.469238e+04
  1.575261e+00    1.408852e+04
  1.628380e+00    1.334918e+04
  1.681498e+00    1.243062e+04
  1.734616e+00    1.148194e+04
  1.787734e+00    1.065160e+04
  1.840852e+00    9.957983e+03
  1.893970e+00    9.463889e+03
  1.947089e+00    9.399075e+03
  2.000207e+00    9.080194e+03
  2.053325e+00    8.472312e+03
  2.106443e+00    8.390767e+03
  2.159561e+00    8.680695e+03
  2.212679e+00    8.918934e+03
  2.265797e+00    9.156520e+03
  2.318916e+00    8.934669e+03
  2.372034e+00    8.323896e+03
  2.425152e+00    8.445591e+03
  2.478270e+00    9.048647e+03
  2.531388e+00    1.018835e+04
  2.584506e+00    1.081927e+04
  2.637625e+00    1.023199e+04
  2.690743e+00    9.271009e+03
  2.743861e+00    8.411110e+03
  2.796979e+00    7.086765e+03
  2.850097e+00    6.087354e+03
  2.903215e+00    5.753881e+03
  2.956334e+00    5.687538e+03
  3.009452e+00    5.902708e+03
  3.062570e+00    6.781599e+03
  3.115688e+00    8.833822e+03
  3.168806e+00    9.386084e+03
  3.221924e+00    7.907438e+03
  3.275043e+00    6.392371e+03
  3.328161e+00    5.734763e+03
  3.381279e+00    5.826506e+03
  3.434397e+00    5.435728e+03
  3.487515e+00    5.180201e+03
  3.540633e+00    5.098377e+03
  3.593751e+00    4.923763e+03
  3.646870e+00    4.909579e+03
  3.699988e+00    5.015647e+03
  3.753106e+00    5.204429e+03
  3.806224e+00    5.325163e+03
  3.859342e+00    5.404317e+03
  3.912460e+00    5.568506e+03
  3.965579e+00    5.836081e+03
  4.018697e+00    6.263066e+03
  4.071815e+00    6.759128e+03
  4.124933e+00    6.904323e+03
  4.178051e+00    6.771486e+03
  4.231169e+00    6.675451e+03
  4.284288e+00    6.933285e+03
  4.337406e+00    7.709077e+03
  4.390524e+00    8.782459e+03
  4.443642e+00    1.105188e+04
  4.496760e+00    1.276779e+04
  4.549878e+00    9.494978e+03
  4.602997e+00    6.318959e+03
  4.656115e+00    5.540948e+03
  4.709233e+00    5.391254e+03
  4.762351e+00    5.496902e+03
  4.815469e+00    5.440467e+03
  4.868587e+00    5.308167e+03
  4.921705e+00    5.304245e+03
  4.974824e+00    5.367486e+03
  5.027942e+00    5.380663e+03
  5.081060e+00    5.411650e+03
  5.134178e+00    5.334883e+03
  5.187296e+00    5.166537e+03
  5.240414e+00    4.918179e+03
  5.293533e+00    4.741686e+03
  5.346651e+00    4.589828e+03
  5.399769e+00    4.461980e+03
  5.452887e+00    4.446825e+03
  5.506005e+00    4.450947e+03
  5.559123e+00    4.088004e+03
  5.612242e+00    3.808901e+03
  5.665360e+00    3.716747e+03
  5.718478e+00    3.616608e+03
  5.771596e+00    3.556818e+03
  5.824714e+00    3.579735e+03
  5.877832e+00    3.654087e+03
  5.930951e+00    3.771989e+03
  5.984069e+00    3.889665e+03
  6.037187e+00    3.932414e+03
  6.090305e+00    3.889814e+03
  6.143423e+00    3.799302e+03
  6.196541e+00    3.849552e+03
  6.249660e+00    4.030141e+03
  6.302778e+00    4.048140e+03
  6.355896e+00    3.802411e+03
  6.409014e+00    3.667214e+03
  6.462132e+00    3.590610e+03
  6.515250e+00    3.511015e+03
  6.568368e+00    3.500463e+03
  6.621487e+00    3.501936e+03
  6.674605e+00    3.508349e+03
  6.727723e+00    3.558139e+03
  6.780841e+00    3.548303e+03
  6.833959e+00    3.480395e+03
  6.887077e+00    3.410666e+03
  6.940196e+00    3.350138e+03
  6.993314e+00    3.377000e+03
  7.046432e+00    3.411720e+03
  7.099550e+00    3.341470e+03
  7.152668e+00    3.261477e+03
  7.205786e+00    3.210103e+03
  7.258905e+00    3.161510e+03
  7.312023e+00    3.156909e+03
  7.365141e+00    3.181230e+03
  7.418259e+00    3.223809e+03
  7.471377e+00    3.272056e+03
  7.524495e+00    3.330915e+03
  7.577614e+00    3.385928e+03
  7.630732e+00    3.423292e+03
  7.683850e+00    3.540591e+03
  7.736968e+00    3.728541e+03
  7.790086e+00    3.705347e+03
  7.843204e+00    3.475459e+03
  7.896322e+00    3.256832e+03
  7.949441e+00    3.136592e+03
  8.002559e+00    3.093388e+03
  8.055677e+00    3.089589e+03
  8.108795e+00    3.089278e+03
  8.161913e+00    3.095083e+03
  8.215031e+00    3.063820e+03
  8.268150e+00    3.008700e+03
  8.321268e+00    2.963081e+03
  8.374386e+00    2.938645e+03
  8.427504e+00    2.923050e+03
  8.480622e+00    2.897521e+03
  8.533740e+00    2.836243e+03
  8.586859e+00    2.861434e+03
  8.639977e+00    2.861912e+03
  8.693095e+00    2.852086e+03
  8.746213e+00    2.851482e+03
  8.799331e+00    2.834982e+03
  8.852449e+00    2.827167e+03
  8.905568e+00    2.846218e+03
  8.958686e+00    2.858104e+03
  9.011804e+00    2.866584e+03
  9.064922e+00    2.798130e+03
  9.118040e+00    2.722575e+03
  9.171158e+00    2.691217e+03
  9.224276e+00    2.676579e+03
  9.277395e+00    2.651574e+03
  9.330513e+00    2.637549e+03
  9.383631e+00    2.625797e+03
  9.436749e+00    2.616809e+03
  9.489867e+00    2.621585e+03
  9.542985e+00    2.613771e+03
  9.596104e+00    2.587432e+03
  9.649222e+00    2.576915e+03
  9.702340e+00    2.569363e+03
  9.755458e+00    2.566000e+03
  9.808576e+00    2.559517e+03
  9.861694e+00    2.565178e+03
  9.914813e+00    2.572176e+03
  9.967931e+00    2.562982e+03
  1.002105e+01    2.523712e+03
  1.007417e+01    2.472644e+03
  1.012729e+01    2.441853e+03
  1.018040e+01    2.442795e+03
  1.023352e+01    2.430051e+03
  1.028664e+01    2.408877e+03
  1.033976e+01    2.391573e+03
  1.039288e+01    2.408947e+03
  1.044599e+01    2.394622e+03
  1.049911e+01    2.392487e+03
  1.055223e+01    2.371682e+03
  1.060535e+01    2.367945e+03
  1.065847e+01    2.359786e+03
  1.071158e+01    2.354348e+03
  1.076470e+01    2.347252e+03
  1.081782e+01    2.342647e+03
  1.087094e+01    2.331654e+03
  1.092406e+01    2.335831e+03
  1.097718e+01    2.337616e+03
  1.103029e+01    2.334019e+03
  1.108341e+01    2.330853e+03
  1.113653e+01    2.319150e+03
  1.118965e+01    2.305537e+03
  1.124277e+01    2.293624e+03
  1.129588e+01    2.288235e+03
  1.134900e+01    2.277234e+03
  1.140212e+01    2.274730e+03
  1.145524e+01    2.266983e+03
  1.150836e+01    2.270897e+03
  1.156148e+01    2.262468e+03
  1.161459e+01    2.267789e+03
  1.166771e+01    2.261406e+03
  1.172083e+01    2.274981e+03
  1.177395e+01    2.260436e+03
  1.182707e+01    2.254063e+03
  1.188018e+01    2.254573e+03
  1.193330e+01    2.239797e+03
  1.198642e+01    2.220806e+03
  1.203954e+01    2.198145e+03
  1.209266e+01    2.188916e+03
  1.214578e+01    2.178715e+03
  1.219889e+01    2.179740e+03
  1.225201e+01    2.176958e+03
  1.230513e+01    2.172203e+03
  1.235825e+01    2.176596e+03
  1.241137e+01    2.165131e+03
  1.246448e+01    2.163667e+03
  1.251760e+01    2.160539e+03
  1.257072e+01    2.155870e+03
  1.262384e+01    2.160256e+03
  1.267696e+01    2.145497e+03
  1.273008e+01    2.128816e+03
  1.278319e+01    2.121584e+03
  1.283631e+01    2.113215e+03
  1.288943e+01    2.107384e+03
  1.294255e+01    2.093542e+03
  1.299567e+01    2.090350e+03
  1.304878e+01    2.083182e+03
  1.310190e+01    2.079271e+03
  1.315502e+01    2.075796e+03
  1.320814e+01    2.048865e+03
  1.326126e+01    2.024149e+03
  1.331437e+01    2.011679e+03
  1.336749e+01    2.005100e+03
  1.342061e+01    1.992169e+03
  1.347373e+01    2.019322e+03
  1.352685e+01    2.022250e+03
  1.357997e+01    2.011342e+03
  1.363308e+01    2.000188e+03
  1.368620e+01    1.989727e+03
  1.373932e+01    1.980847e+03
  1.379244e+01    1.974817e+03
  1.384556e+01    1.969994e+03
  1.389867e+01    1.960664e+03
  1.395179e+01    1.953653e+03
  1.400491e+01    1.951443e+03
  1.405803e+01    1.946987e+03
  1.411115e+01    1.939317e+03
  1.416427e+01    1.931303e+03
  1.421738e+01    1.925388e+03
  1.427050e+01    1.916961e+03
  1.432362e+01    1.919306e+03
  1.437674e+01    1.916151e+03
  1.442986e+01    1.902889e+03
  1.448297e+01    1.895459e+03
  1.453609e+01    1.889203e+03
  1.458921e+01    1.879628e+03
  1.464233e+01    1.874885e+03
  1.469545e+01    1.868743e+03
  1.474857e+01    1.848981e+03
  1.480168e+01    1.860298e+03
  1.485480e+01    1.856875e+03
  1.490792e+01    1.852513e+03
  1.496104e+01    1.844147e+03
  1.501416e+01    1.841768e+03
  1.506727e+01    1.839688e+03
  1.512039e+01    1.834677e+03
  1.517351e+01    1.849094e+03
  1.522663e+01    1.860802e+03
  1.527975e+01    1.858730e+03
  1.533286e+01    1.843670e+03
  1.538598e+01    1.831117e+03
  1.543910e+01    1.823010e+03
  1.549222e+01    1.819462e+03
  1.554534e+01    1.822068e+03
  1.559846e+01    1.819329e+03
  1.565157e+01    1.811543e+03
  1.570469e+01    1.806141e+03
  1.575781e+01    1.800797e+03
  1.581093e+01    1.799135e+03
  1.586405e+01    1.795596e+03
  1.591716e+01    1.790054e+03
  1.597028e+01    1.784689e+03
  1.602340e+01    1.769972e+03
  1.607652e+01    1.758913e+03
  1.612964e+01    1.735455e+03
  1.618276e+01    1.723859e+03
  1.623587e+01    1.725588e+03
  1.628899e+01    1.740918e+03
  1.634211e+01    1.737605e+03
  1.639523e+01    1.733691e+03
  1.644835e+01    1.734195e+03
  1.650146e+01    1.727723e+03
  1.655458e+01    1.726395e+03
  1.660770e+01    1.720444e+03
  1.666082e+01    1.717257e+03
  1.671394e+01    1.716933e+03
  1.676706e+01    1.713200e+03
  1.682017e+01    1.725995e+03
  1.687329e+01    1.715800e+03
  1.692641e+01    1.709422e+03
  1.697953e+01    1.704724e+03
  1.703265e+01    1.700359e+03
  1.708576e+01    1.699142e+03
  1.713888e+01    1.689758e+03
  1.719200e+01    1.687726e+03
  1.724512e+01    1.681091e+03
  1.729824e+01    1.680771e+03
  1.735136e+01    1.675896e+03
  1.740447e+01    1.652705e+03
  1.745759e+01    1.660902e+03
  1.751071e+01    1.660835e+03
  1.756383e+01    1.671366e+03
  1.761695e+01    1.656762e+03
  1.767006e+01    1.654095e+03
  1.772318e+01    1.643360e+03
  1.777630e+01    1.642931e+03
  1.782942e+01    1.634644e+03
  1.788254e+01    1.630036e+03
  1.793565e+01    1.627490e+03
  1.798877e+01    1.624935e+03
  1.804189e+01    1.617632e+03
  1.809501e+01    1.613767e+03
  1.814813e+01    1.612245e+03
  1.820125e+01    1.605718e+03
  1.825436e+01    1.612695e+03
  1.830748e+01    1.604930e+03
  1.836060e+01    1.600125e+03
  1.841372e+01    1.596935e+03
  1.846684e+01    1.592674e+03
  1.851995e+01    1.572654e+03
  1.857307e+01    1.558003e+03
  1.862619e+01    1.548343e+03
  1.867931e+01    1.544733e+03
  1.873243e+01    1.564054e+03
  1.878555e+01    1.565803e+03
  1.883866e+01    1.565306e+03
  1.889178e+01    1.564475e+03
  1.894490e+01    1.576863e+03
  1.899802e+01    1.567197e+03
  1.905114e+01    1.563122e+03
  1.910425e+01    1.556354e+03
  1.915737e+01    1.553345e+03
  1.921049e+01    1.547900e+03
  1.926361e+01    1.543704e+03
  1.931673e+01    1.540367e+03
  1.936985e+01    1.538439e+03
  1.942296e+01    1.536679e+03
  1.947608e+01    1.535877e+03
  1.952920e+01    1.532535e+03
  1.958232e+01    1.534576e+03
  1.963544e+01    1.538785e+03
  1.968855e+01    1.524634e+03
  1.974167e+01    1.513857e+03
  1.979479e+01    1.517324e+03
  1.984791e+01    1.515601e+03
  1.990103e+01    1.514359e+03
  1.995414e+01    1.513423e+03
  2.000726e+01    1.510907e+03
  2.006038e+01    1.506297e+03
  2.011350e+01    1.501160e+03
  2.016662e+01    1.496188e+03
  2.021974e+01    1.498603e+03
  2.027285e+01    1.506020e+03
  2.032597e+01    1.490392e+03
  2.037909e+01    1.485684e+03
  2.043221e+01    1.480721e+03
  2.048533e+01    1.478927e+03
  2.053844e+01    1.477941e+03
  2.059156e+01    1.472828e+03
  2.064468e+01    1.469481e+03
  2.069780e+01    1.449354e+03
  2.075092e+01    1.424932e+03
  2.080404e+01    1.412152e+03
  2.085715e+01    1.431298e+03
  2.091027e+01    1.457375e+03
  2.096339e+01    1.464541e+03
  2.101651e+01    1.469000e+03
  2.106963e+01    1.473399e+03
  2.112274e+01    1.476228e+03
  2.117586e+01    1.477785e+03
  2.122898e+01    1.480200e+03
  2.128210e+01    1.477937e+03
  2.133522e+01    1.477336e+03
  2.138834e+01    1.477070e+03
  2.144145e+01    1.476095e+03
  2.149457e+01    1.476435e+03
  2.154769e+01    1.475418e+03
  2.160081e+01    1.474403e+03
  2.165393e+01    1.476630e+03
  2.170704e+01    1.476716e+03
  2.176016e+01    1.464732e+03
  2.181328e+01    1.473965e+03
  2.186640e+01    1.475885e+03
  2.191952e+01    1.473583e+03
  2.197263e+01    1.470249e+03
  2.202575e+01    1.469401e+03
  2.207887e+01    1.467763e+03
  2.213199e+01    1.467388e+03
  2.218511e+01    1.465156e+03
  2.223823e+01    1.465958e+03
  2.229134e+01    1.463197e+03
  2.234446e+01    1.462103e+03
  2.239758e+01    1.462028e+03
  2.245070e+01    1.458633e+03
  2.250382e+01    1.460199e+03
  2.255693e+01    1.457775e+03
  2.261005e+01    1.439293e+03
  2.266317e+01    1.425309e+03
  2.271629e+01    1.417305e+03
  2.276941e+01    1.408339e+03
  2.282253e+01    1.400667e+03
  2.287564e+01    1.397192e+03
  2.292876e+01    1.393063e+03
  2.298188e+01    1.388478e+03
  2.303500e+01    1.386553e+03
  2.308812e+01    1.383511e+03
  2.314123e+01    1.382838e+03
  2.319435e+01    1.378222e+03
  2.324747e+01    1.370440e+03
  2.330059e+01    1.367782e+03
  2.335371e+01    1.364863e+03
  2.340683e+01    1.360453e+03
  2.345994e+01    1.357328e+03
  2.351306e+01    1.353068e+03
  2.356618e+01    1.350208e+03
  2.361930e+01    1.345012e+03
  2.367242e+01    1.338944e+03
  2.372553e+01    1.333792e+03
  2.377865e+01    1.328510e+03
  2.383177e+01    1.322909e+03
  2.388489e+01    1.317471e+03
  2.393801e+01    1.314186e+03
  2.399113e+01    1.312946e+03
  2.404424e+01    1.310366e+03
  2.409736e+01    1.309591e+03
  2.415048e+01    1.306085e+03
  2.420360e+01    1.303455e+03
  2.425672e+01    1.297802e+03
  2.430983e+01    1.298151e+03
  2.436295e+01    1.292510e+03
  2.441607e+01    1.291730e+03
  2.446919e+01    1.290323e+03
  2.452231e+01    1.289161e+03
  2.457542e+01    1.286416e+03
  2.462854e+01    1.283866e+03
  2.468166e+01    1.282130e+03
  2.473478e+01    1.276248e+03
  2.478790e+01    1.271921e+03
  2.484102e+01    1.267662e+03
  2.489413e+01    1.261623e+03
  2.494725e+01    1.259203e+03
  2.500037e+01    1.254668e+03
  2.505349e+01    1.251374e+03
  2.510661e+01    1.244952e+03
  2.515972e+01    1.242686e+03
  2.521284e+01    1.242909e+03
  2.526596e+01    1.240848e+03
  2.531908e+01    1.233463e+03
  2.537220e+01    1.232684e+03
  2.542532e+01    1.229580e+03
  2.547843e+01    1.227732e+03
  2.553155e+01    1.222763e+03
  2.558467e+01    1.215494e+03
  2.563779e+01    1.209196e+03
  2.569091e+01    1.202920e+03
  2.574402e+01    1.194861e+03
  2.579714e+01    1.190721e+03
  2.585026e+01    1.179985e+03
  2.590338e+01    1.172826e+03
  2.595650e+01    1.172431e+03
  2.600962e+01    1.169704e+03
  2.606273e+01    1.169564e+03
  2.611585e+01    1.169831e+03
  2.616897e+01    1.166916e+03
  2.622209e+01    1.162024e+03
  2.627521e+01    1.162229e+03
  2.632832e+01    1.158618e+03
  2.638144e+01    1.156473e+03
  2.643456e+01    1.150665e+03
  2.648768e+01    1.135396e+03
  2.654080e+01    1.122001e+03
