# == pyFAI calibration ==
# Distance Sample to Detector: 0.2946421923531691 m
# PONI: 2.875e-01, 2.439e-01 m
# Rotations: -0.010990 -0.009181 0.000003 rad
# 
# == Fit2d calibration ==
# Distance Sample-beamCenter: 294.672 mm
# Center: x=1436.809, y=1655.851 pix
# Tilt: 0.820 deg  TiltPlanRot: -39.874 deg
# 
# Detector Pilatus 2M	 PixelSize= 1.720e-04, 1.720e-04 m
#    Detector has a mask: True 
#    Detector has a dark current: False 
#    detector has a flat field: False 
# 
# Wavelength: 2.0732883349524408e-11 m
# Mask applied: from detector
# Dark current applied: False
# Flat field applied: False
# Polarization factor: None
# Normalization factor: 1.0
# --> /gpfs/current/raw/FMue_3/FMue_3_20231024_175355_00009.dat
#        q_A^-1             I 
  3.483473e-02             nan
  8.795289e-02             nan
  1.410711e-01             nan
  1.941892e-01             nan
  2.473074e-01             nan
  3.004255e-01             nan
  3.535437e-01             nan
  4.066619e-01    9.576532e+03
  4.597800e-01    9.121274e+03
  5.128982e-01    8.210301e+03
  5.660163e-01    7.881004e+03
  6.191345e-01    7.906721e+03
  6.722527e-01    8.054223e+03
  7.253708e-01    8.414618e+03
  7.784890e-01    1.368164e+04
  8.316071e-01    2.730926e+04
  8.847253e-01    1.658609e+04
  9.378435e-01    9.415341e+03
  9.909616e-01    9.978947e+03
  1.044080e+00    1.018526e+04
  1.097198e+00    9.978189e+03
  1.150316e+00    1.036026e+04
  1.203434e+00    1.105936e+04
  1.256552e+00    1.208999e+04
  1.309671e+00    1.304576e+04
  1.362789e+00    1.391268e+04
  1.415907e+00    1.461152e+04
  1.469025e+00    1.485309e+04
  1.522143e+00    1.478239e+04
  1.575261e+00    1.430506e+04
  1.628380e+00    1.636127e+04
  1.681498e+00    1.812523e+04
  1.734616e+00    1.268681e+04
  1.787734e+00    1.064601e+04
  1.840852e+00    9.885846e+03
  1.893970e+00    9.347013e+03
  1.947089e+00    9.257696e+03
  2.000207e+00    8.891124e+03
  2.053325e+00    8.173997e+03
  2.106443e+00    7.919082e+03
  2.159561e+00    8.042838e+03
  2.212679e+00    8.223934e+03
  2.265797e+00    8.444514e+03
  2.318916e+00    8.317980e+03
  2.372034e+00    8.859956e+03
  2.425152e+00    1.358219e+04
  2.478270e+00    9.597990e+03
  2.531388e+00    8.168003e+03
  2.584506e+00    8.971343e+03
  2.637625e+00    8.856536e+03
  2.690743e+00    9.212674e+03
  2.743861e+00    1.268918e+04
  2.796979e+00    8.367719e+03
  2.850097e+00    5.904662e+03
  2.903215e+00    5.466872e+03
  2.956334e+00    5.299807e+03
  3.009452e+00    5.402051e+03
  3.062570e+00    6.242460e+03
  3.115688e+00    7.893818e+03
  3.168806e+00    8.918807e+03
  3.221924e+00    1.073745e+04
  3.275043e+00    1.008489e+04
  3.328161e+00    6.312423e+03
  3.381279e+00    6.026171e+03
  3.434397e+00    5.400713e+03
  3.487515e+00    5.090470e+03
  3.540633e+00    5.025254e+03
  3.593751e+00    5.132258e+03
  3.646870e+00    6.326020e+03
  3.699988e+00    5.626245e+03
  3.753106e+00    4.984031e+03
  3.806224e+00    5.160010e+03
  3.859342e+00    5.941039e+03
  3.912460e+00    5.655712e+03
  3.965579e+00    5.185104e+03
  4.018697e+00    5.493812e+03
  4.071815e+00    7.423073e+03
  4.124933e+00    8.165814e+03
  4.178051e+00    8.792853e+03
  4.231169e+00    6.971562e+03
  4.284288e+00    6.475877e+03
  4.337406e+00    7.340991e+03
  4.390524e+00    7.898401e+03
  4.443642e+00    1.032769e+04
  4.496760e+00    1.206814e+04
  4.549878e+00    9.745698e+03
  4.602997e+00    6.315073e+03
  4.656115e+00    5.253426e+03
  4.709233e+00    5.359589e+03
  4.762351e+00    6.081896e+03
  4.815469e+00    5.783986e+03
  4.868587e+00    5.384727e+03
  4.921705e+00    5.818995e+03
  4.974824e+00    5.732775e+03
  5.027942e+00    5.923468e+03
  5.081060e+00    5.788934e+03
  5.134178e+00    5.282469e+03
  5.187296e+00    5.163419e+03
  5.240414e+00    5.374801e+03
  5.293533e+00    4.994367e+03
  5.346651e+00    4.564205e+03
  5.399769e+00    4.346149e+03
  5.452887e+00    4.462999e+03
  5.506005e+00    4.659396e+03
  5.559123e+00    4.143190e+03
  5.612242e+00    3.967377e+03
  5.665360e+00    3.893901e+03
  5.718478e+00    3.585441e+03
  5.771596e+00    3.596193e+03
  5.824714e+00    3.738061e+03
  5.877832e+00    3.698653e+03
  5.930951e+00    3.756487e+03
  5.984069e+00    3.904427e+03
  6.037187e+00    3.817446e+03
  6.090305e+00    3.809942e+03
  6.143423e+00    3.762046e+03
  6.196541e+00    3.744088e+03
  6.249660e+00    4.246499e+03
  6.302778e+00    4.407568e+03
  6.355896e+00    4.017146e+03
  6.409014e+00    4.196158e+03
  6.462132e+00    4.087770e+03
  6.515250e+00    3.925857e+03
  6.568368e+00    3.730188e+03
  6.621487e+00    3.739479e+03
  6.674605e+00    3.702093e+03
  6.727723e+00    3.493865e+03
  6.780841e+00    3.417235e+03
  6.833959e+00    3.495169e+03
  6.887077e+00    3.428963e+03
  6.940196e+00    3.401916e+03
  6.993314e+00    3.486734e+03
  7.046432e+00    3.466150e+03
  7.099550e+00    3.738251e+03
  7.152668e+00    3.816184e+03
  7.205786e+00    3.491612e+03
  7.258905e+00    3.398342e+03
  7.312023e+00    3.258703e+03
  7.365141e+00    3.180341e+03
  7.418259e+00    3.148746e+03
  7.471377e+00    3.156204e+03
  7.524495e+00    3.266019e+03
  7.577614e+00    3.289718e+03
  7.630732e+00    3.347729e+03
  7.683850e+00    3.551651e+03
  7.736968e+00    3.732258e+03
  7.790086e+00    3.796112e+03
  7.843204e+00    3.705280e+03
  7.896322e+00    3.341701e+03
  7.949441e+00    3.102987e+03
  8.002559e+00    3.031658e+03
  8.055677e+00    3.015684e+03
  8.108795e+00    3.040728e+03
  8.161913e+00    3.179803e+03
  8.215031e+00    3.356040e+03
  8.268150e+00    3.190832e+03
  8.321268e+00    3.041645e+03
  8.374386e+00    3.083011e+03
  8.427504e+00    3.029273e+03
  8.480622e+00    2.984845e+03
  8.533740e+00    3.034468e+03
  8.586859e+00    3.089372e+03
  8.639977e+00    3.070418e+03
  8.693095e+00    3.011208e+03
  8.746213e+00    2.976792e+03
  8.799331e+00    2.964372e+03
  8.852449e+00    2.922583e+03
  8.905568e+00    2.894421e+03
  8.958686e+00    2.960305e+03
  9.011804e+00    2.972611e+03
  9.064922e+00    2.911782e+03
  9.118040e+00    2.783632e+03
  9.171158e+00    2.773493e+03
  9.224276e+00    2.804187e+03
  9.277395e+00    2.759131e+03
  9.330513e+00    2.717178e+03
  9.383631e+00    2.715353e+03
  9.436749e+00    2.690482e+03
  9.489867e+00    2.709849e+03
  9.542985e+00    2.724536e+03
  9.596104e+00    2.733789e+03
  9.649222e+00    2.685867e+03
  9.702340e+00    2.652409e+03
  9.755458e+00    2.664562e+03
  9.808576e+00    2.624319e+03
  9.861694e+00    2.612948e+03
  9.914813e+00    2.622396e+03
  9.967931e+00    2.629641e+03
  1.002105e+01    2.616582e+03
  1.007417e+01    2.577267e+03
  1.012729e+01    2.514229e+03
  1.018040e+01    2.506314e+03
  1.023352e+01    2.505616e+03
  1.028664e+01    2.495249e+03
  1.033976e+01    2.513973e+03
  1.039288e+01    2.526663e+03
  1.044599e+01    2.496596e+03
  1.049911e+01    2.503208e+03
  1.055223e+01    2.498921e+03
  1.060535e+01    2.478819e+03
  1.065847e+01    2.459524e+03
  1.071158e+01    2.450095e+03
  1.076470e+01    2.435481e+03
  1.081782e+01    2.467032e+03
  1.087094e+01    2.490318e+03
  1.092406e+01    2.470214e+03
  1.097718e+01    2.456307e+03
  1.103029e+01    2.417811e+03
  1.108341e+01    2.398737e+03
  1.113653e+01    2.394147e+03
  1.118965e+01    2.373518e+03
  1.124277e+01    2.364176e+03
  1.129588e+01    2.362214e+03
  1.134900e+01    2.361647e+03
  1.140212e+01    2.339520e+03
  1.145524e+01    2.310554e+03
  1.150836e+01    2.308459e+03
  1.156148e+01    2.315612e+03
  1.161459e+01    2.333258e+03
  1.166771e+01    2.315125e+03
  1.172083e+01    2.332956e+03
  1.177395e+01    2.321958e+03
  1.182707e+01    2.323180e+03
  1.188018e+01    2.340344e+03
  1.193330e+01    2.334311e+03
  1.198642e+01    2.316300e+03
  1.203954e+01    2.288220e+03
  1.209266e+01    2.274169e+03
  1.214578e+01    2.265788e+03
  1.219889e+01    2.264366e+03
  1.225201e+01    2.270410e+03
  1.230513e+01    2.291269e+03
  1.235825e+01    2.296815e+03
  1.241137e+01    2.274162e+03
  1.246448e+01    2.269580e+03
  1.251760e+01    2.274763e+03
  1.257072e+01    2.273724e+03
  1.262384e+01    2.270676e+03
  1.267696e+01    2.255238e+03
  1.273008e+01    2.246853e+03
  1.278319e+01    2.227553e+03
  1.283631e+01    2.206289e+03
  1.288943e+01    2.199767e+03
  1.294255e+01    2.187634e+03
  1.299567e+01    2.182630e+03
  1.304878e+01    2.171775e+03
  1.310190e+01    2.167871e+03
  1.315502e+01    2.169487e+03
  1.320814e+01    2.147775e+03
  1.326126e+01    2.111383e+03
  1.331437e+01    2.092964e+03
  1.336749e+01    2.078476e+03
  1.342061e+01    2.063450e+03
  1.347373e+01    2.088123e+03
  1.352685e+01    2.092174e+03
  1.357997e+01    2.087555e+03
  1.363308e+01    2.078420e+03
  1.368620e+01    2.067395e+03
  1.373932e+01    2.051096e+03
  1.379244e+01    2.038626e+03
  1.384556e+01    2.031252e+03
  1.389867e+01    2.030430e+03
  1.395179e+01    2.025574e+03
  1.400491e+01    2.023058e+03
  1.405803e+01    2.016816e+03
  1.411115e+01    2.007239e+03
  1.416427e+01    2.003699e+03
  1.421738e+01    2.003196e+03
  1.427050e+01    1.994979e+03
  1.432362e+01    1.996707e+03
  1.437674e+01    1.999955e+03
  1.442986e+01    1.991822e+03
  1.448297e+01    1.979709e+03
  1.453609e+01    1.970920e+03
  1.458921e+01    1.961104e+03
  1.464233e+01    1.955510e+03
  1.469545e+01    1.950339e+03
  1.474857e+01    1.935466e+03
  1.480168e+01    1.953620e+03
  1.485480e+01    1.949050e+03
  1.490792e+01    1.940366e+03
  1.496104e+01    1.929342e+03
  1.501416e+01    1.925786e+03
  1.506727e+01    1.921221e+03
  1.512039e+01    1.916468e+03
  1.517351e+01    1.927813e+03
  1.522663e+01    1.940927e+03
  1.527975e+01    1.938643e+03
  1.533286e+01    1.923752e+03
  1.538598e+01    1.911834e+03
  1.543910e+01    1.899389e+03
  1.549222e+01    1.897328e+03
  1.554534e+01    1.899344e+03
  1.559846e+01    1.901713e+03
  1.565157e+01    1.892581e+03
  1.570469e+01    1.882812e+03
  1.575781e+01    1.879647e+03
  1.581093e+01    1.874630e+03
  1.586405e+01    1.872493e+03
  1.591716e+01    1.865775e+03
  1.597028e+01    1.859146e+03
  1.602340e+01    1.841222e+03
  1.607652e+01    1.829745e+03
  1.612964e+01    1.806204e+03
  1.618276e+01    1.795087e+03
  1.623587e+01    1.797922e+03
  1.628899e+01    1.813681e+03
  1.634211e+01    1.814070e+03
  1.639523e+01    1.808802e+03
  1.644835e+01    1.813251e+03
  1.650146e+01    1.807859e+03
  1.655458e+01    1.807941e+03
  1.660770e+01    1.802297e+03
  1.666082e+01    1.795893e+03
  1.671394e+01    1.794047e+03
  1.676706e+01    1.789190e+03
  1.682017e+01    1.803983e+03
  1.687329e+01    1.791738e+03
  1.692641e+01    1.782730e+03
  1.697953e+01    1.779380e+03
  1.703265e+01    1.776805e+03
  1.708576e+01    1.775207e+03
  1.713888e+01    1.766683e+03
  1.719200e+01    1.764214e+03
  1.724512e+01    1.754333e+03
  1.729824e+01    1.754989e+03
  1.735136e+01    1.749195e+03
  1.740447e+01    1.726992e+03
  1.745759e+01    1.734025e+03
  1.751071e+01    1.733675e+03
  1.756383e+01    1.743933e+03
  1.761695e+01    1.727038e+03
  1.767006e+01    1.722426e+03
  1.772318e+01    1.712514e+03
  1.777630e+01    1.713957e+03
  1.782942e+01    1.705081e+03
  1.788254e+01    1.700535e+03
  1.793565e+01    1.700260e+03
  1.798877e+01    1.697516e+03
  1.804189e+01    1.688403e+03
  1.809501e+01    1.684738e+03
  1.814813e+01    1.681593e+03
  1.820125e+01    1.677067e+03
  1.825436e+01    1.683735e+03
  1.830748e+01    1.675949e+03
  1.836060e+01    1.672383e+03
  1.841372e+01    1.669846e+03
  1.846684e+01    1.665441e+03
  1.851995e+01    1.644521e+03
  1.857307e+01    1.628734e+03
  1.862619e+01    1.617558e+03
  1.867931e+01    1.616074e+03
  1.873243e+01    1.635317e+03
  1.878555e+01    1.639106e+03
  1.883866e+01    1.637570e+03
  1.889178e+01    1.637498e+03
  1.894490e+01    1.650504e+03
  1.899802e+01    1.638940e+03
  1.905114e+01    1.633323e+03
  1.910425e+01    1.627965e+03
  1.915737e+01    1.623083e+03
  1.921049e+01    1.618787e+03
  1.926361e+01    1.615278e+03
  1.931673e+01    1.611563e+03
  1.936985e+01    1.611455e+03
  1.942296e+01    1.606716e+03
  1.947608e+01    1.607716e+03
  1.952920e+01    1.602478e+03
  1.958232e+01    1.602008e+03
  1.963544e+01    1.608366e+03
  1.968855e+01    1.592405e+03
  1.974167e+01    1.579770e+03
  1.979479e+01    1.584983e+03
  1.984791e+01    1.583447e+03
  1.990103e+01    1.580688e+03
  1.995414e+01    1.579604e+03
  2.000726e+01    1.576553e+03
  2.006038e+01    1.572662e+03
  2.011350e+01    1.568091e+03
  2.016662e+01    1.561557e+03
  2.021974e+01    1.567238e+03
  2.027285e+01    1.573125e+03
  2.032597e+01    1.555542e+03
  2.037909e+01    1.551481e+03
  2.043221e+01    1.547577e+03
  2.048533e+01    1.545943e+03
  2.053844e+01    1.546129e+03
  2.059156e+01    1.539135e+03
  2.064468e+01    1.536829e+03
  2.069780e+01    1.514931e+03
  2.075092e+01    1.490456e+03
  2.080404e+01    1.473955e+03
  2.085715e+01    1.496669e+03
  2.091027e+01    1.523642e+03
  2.096339e+01    1.530929e+03
  2.101651e+01    1.537585e+03
  2.106963e+01    1.539780e+03
  2.112274e+01    1.545049e+03
  2.117586e+01    1.545918e+03
  2.122898e+01    1.549314e+03
  2.128210e+01    1.546004e+03
  2.133522e+01    1.547005e+03
  2.138834e+01    1.544925e+03
  2.144145e+01    1.544483e+03
  2.149457e+01    1.544634e+03
  2.154769e+01    1.543238e+03
  2.160081e+01    1.542277e+03
  2.165393e+01    1.544160e+03
  2.170704e+01    1.545762e+03
  2.176016e+01    1.533067e+03
  2.181328e+01    1.541785e+03
  2.186640e+01    1.543684e+03
  2.191952e+01    1.540986e+03
  2.197263e+01    1.538053e+03
  2.202575e+01    1.536031e+03
  2.207887e+01    1.535943e+03
  2.213199e+01    1.533104e+03
  2.218511e+01    1.532566e+03
  2.223823e+01    1.531475e+03
  2.229134e+01    1.531685e+03
  2.234446e+01    1.529177e+03
  2.239758e+01    1.528200e+03
  2.245070e+01    1.526097e+03
  2.250382e+01    1.527309e+03
  2.255693e+01    1.524514e+03
  2.261005e+01    1.506668e+03
  2.266317e+01    1.493597e+03
  2.271629e+01    1.483375e+03
  2.276941e+01    1.474219e+03
  2.282253e+01    1.465873e+03
  2.287564e+01    1.461527e+03
  2.292876e+01    1.456226e+03
  2.298188e+01    1.453870e+03
  2.303500e+01    1.451086e+03
  2.308812e+01    1.448354e+03
  2.314123e+01    1.445692e+03
  2.319435e+01    1.440324e+03
  2.324747e+01    1.433307e+03
  2.330059e+01    1.430957e+03
  2.335371e+01    1.428820e+03
  2.340683e+01    1.423088e+03
  2.345994e+01    1.420005e+03
  2.351306e+01    1.417311e+03
  2.356618e+01    1.412273e+03
  2.361930e+01    1.406030e+03
  2.367242e+01    1.400904e+03
  2.372553e+01    1.395175e+03
  2.377865e+01    1.390143e+03
  2.383177e+01    1.385377e+03
  2.388489e+01    1.379550e+03
  2.393801e+01    1.376092e+03
  2.399113e+01    1.374691e+03
  2.404424e+01    1.373824e+03
  2.409736e+01    1.371512e+03
  2.415048e+01    1.366167e+03
  2.420360e+01    1.362042e+03
  2.425672e+01    1.359778e+03
  2.430983e+01    1.355007e+03
  2.436295e+01    1.353432e+03
  2.441607e+01    1.351729e+03
  2.446919e+01    1.348194e+03
  2.452231e+01    1.351618e+03
  2.457542e+01    1.346008e+03
  2.462854e+01    1.341883e+03
  2.468166e+01    1.342620e+03
  2.473478e+01    1.337654e+03
  2.478790e+01    1.330489e+03
  2.484102e+01    1.327701e+03
  2.489413e+01    1.321755e+03
  2.494725e+01    1.317372e+03
  2.500037e+01    1.314561e+03
  2.505349e+01    1.309944e+03
  2.510661e+01    1.302521e+03
  2.515972e+01    1.301548e+03
  2.521284e+01    1.298004e+03
  2.526596e+01    1.297018e+03
  2.531908e+01    1.290022e+03
  2.537220e+01    1.289163e+03
  2.542532e+01    1.284867e+03
  2.547843e+01    1.280486e+03
  2.553155e+01    1.281605e+03
  2.558467e+01    1.275311e+03
  2.563779e+01    1.263576e+03
  2.569091e+01    1.257506e+03
  2.574402e+01    1.249519e+03
  2.579714e+01    1.240613e+03
  2.585026e+01    1.235435e+03
  2.590338e+01    1.225961e+03
  2.595650e+01    1.226827e+03
  2.600962e+01    1.224283e+03
  2.606273e+01    1.221456e+03
  2.611585e+01    1.221244e+03
  2.616897e+01    1.219302e+03
  2.622209e+01    1.217099e+03
  2.627521e+01    1.210581e+03
  2.632832e+01    1.202938e+03
  2.638144e+01    1.207475e+03
  2.643456e+01    1.202988e+03
  2.648768e+01    1.185349e+03
  2.654080e+01    1.161797e+03
