# == pyFAI calibration ==
# Distance Sample to Detector: 0.2946421923531691 m
# PONI: 2.875e-01, 2.439e-01 m
# Rotations: -0.010990 -0.009181 0.000003 rad
# 
# == Fit2d calibration ==
# Distance Sample-beamCenter: 294.672 mm
# Center: x=1436.809, y=1655.851 pix
# Tilt: 0.820 deg  TiltPlanRot: -39.874 deg
# 
# Detector Pilatus 2M	 PixelSize= 1.720e-04, 1.720e-04 m
#    Detector has a mask: True 
#    Detector has a dark current: False 
#    detector has a flat field: False 
# 
# Wavelength: 2.0732883349524408e-11 m
# Mask applied: from detector
# Dark current applied: False
# Flat field applied: False
# Polarization factor: None
# Normalization factor: 1.0
# --> /gpfs/current/raw/FMue_3/FMue_3_20231024_175355_00197.dat
#        q_A^-1             I 
  3.483473e-02             nan
  8.795289e-02             nan
  1.410711e-01             nan
  1.941892e-01             nan
  2.473074e-01             nan
  3.004255e-01             nan
  3.535437e-01             nan
  4.066619e-01    1.127849e+04
  4.597800e-01    1.036488e+04
  5.128982e-01    8.848570e+03
  5.660163e-01    8.075214e+03
  6.191345e-01    7.809884e+03
  6.722527e-01    7.715768e+03
  7.253708e-01    7.782123e+03
  7.784890e-01    7.845131e+03
  8.316071e-01    7.988618e+03
  8.847253e-01    8.120173e+03
  9.378435e-01    8.305844e+03
  9.909616e-01    8.521346e+03
  1.044080e+00    8.844760e+03
  1.097198e+00    9.265200e+03
  1.150316e+00    9.878358e+03
  1.203434e+00    1.057291e+04
  1.256552e+00    1.146276e+04
  1.309671e+00    1.264040e+04
  1.362789e+00    1.371672e+04
  1.415907e+00    1.417099e+04
  1.469025e+00    1.426311e+04
  1.522143e+00    1.413487e+04
  1.575261e+00    1.356635e+04
  1.628380e+00    1.283247e+04
  1.681498e+00    1.190354e+04
  1.734616e+00    1.095192e+04
  1.787734e+00    1.013248e+04
  1.840852e+00    9.417835e+03
  1.893970e+00    8.831467e+03
  1.947089e+00    8.416092e+03
  2.000207e+00    8.117643e+03
  2.053325e+00    8.010142e+03
  2.106443e+00    8.488562e+03
  2.159561e+00    9.605260e+03
  2.212679e+00    9.874780e+03
  2.265797e+00    9.290010e+03
  2.318916e+00    8.509104e+03
  2.372034e+00    7.802956e+03
  2.425152e+00    8.036413e+03
  2.478270e+00    9.500410e+03
  2.531388e+00    1.300660e+04
  2.584506e+00    1.407765e+04
  2.637625e+00    1.064833e+04
  2.690743e+00    8.427160e+03
  2.743861e+00    7.607970e+03
  2.796979e+00    6.361419e+03
  2.850097e+00    5.482676e+03
  2.903215e+00    5.178756e+03
  2.956334e+00    5.115699e+03
  3.009452e+00    5.449644e+03
  3.062570e+00    6.968096e+03
  3.115688e+00    9.243767e+03
  3.168806e+00    8.957439e+03
  3.221924e+00    7.212965e+03
  3.275043e+00    5.697658e+03
  3.328161e+00    4.855445e+03
  3.381279e+00    4.628375e+03
  3.434397e+00    4.641524e+03
  3.487515e+00    4.720264e+03
  3.540633e+00    4.648322e+03
  3.593751e+00    4.568315e+03
  3.646870e+00    4.626609e+03
  3.699988e+00    4.800839e+03
  3.753106e+00    5.128444e+03
  3.806224e+00    5.369024e+03
  3.859342e+00    5.364660e+03
  3.912460e+00    5.600211e+03
  3.965579e+00    6.473098e+03
  4.018697e+00    7.482043e+03
  4.071815e+00    7.433912e+03
  4.124933e+00    6.761979e+03
  4.178051e+00    6.318330e+03
  4.231169e+00    6.167875e+03
  4.284288e+00    6.558893e+03
  4.337406e+00    8.269233e+03
  4.390524e+00    1.049439e+04
  4.443642e+00    1.195936e+04
  4.496760e+00    1.211704e+04
  4.549878e+00    8.458763e+03
  4.602997e+00    5.873001e+03
  4.656115e+00    5.245084e+03
  4.709233e+00    5.045452e+03
  4.762351e+00    4.991116e+03
  4.815469e+00    5.050732e+03
  4.868587e+00    5.188408e+03
  4.921705e+00    5.260764e+03
  4.974824e+00    5.334187e+03
  5.027942e+00    5.498209e+03
  5.081060e+00    5.703479e+03
  5.134178e+00    5.489040e+03
  5.187296e+00    5.035142e+03
  5.240414e+00    4.646319e+03
  5.293533e+00    4.446513e+03
  5.346651e+00    4.367533e+03
  5.399769e+00    4.283145e+03
  5.452887e+00    4.246999e+03
  5.506005e+00    4.124410e+03
  5.559123e+00    3.768991e+03
  5.612242e+00    3.593820e+03
  5.665360e+00    3.555468e+03
  5.718478e+00    3.552162e+03
  5.771596e+00    3.614738e+03
  5.824714e+00    3.698238e+03
  5.877832e+00    3.877523e+03
  5.930951e+00    4.157641e+03
  5.984069e+00    4.174273e+03
  6.037187e+00    3.941806e+03
  6.090305e+00    3.762850e+03
  6.143423e+00    3.740023e+03
  6.196541e+00    3.891875e+03
  6.249660e+00    4.006425e+03
  6.302778e+00    3.869014e+03
  6.355896e+00    3.607034e+03
  6.409014e+00    3.513967e+03
  6.462132e+00    3.446925e+03
  6.515250e+00    3.411190e+03
  6.568368e+00    3.442549e+03
  6.621487e+00    3.512552e+03
  6.674605e+00    3.633813e+03
  6.727723e+00    3.685866e+03
  6.780841e+00    3.512244e+03
  6.833959e+00    3.320471e+03
  6.887077e+00    3.236707e+03
  6.940196e+00    3.205991e+03
  6.993314e+00    3.229723e+03
  7.046432e+00    3.231519e+03
  7.099550e+00    3.159883e+03
  7.152668e+00    3.101811e+03
  7.205786e+00    3.057342e+03
  7.258905e+00    3.047146e+03
  7.312023e+00    3.115126e+03
  7.365141e+00    3.219762e+03
  7.418259e+00    3.265385e+03
  7.471377e+00    3.255150e+03
  7.524495e+00    3.328561e+03
  7.577614e+00    3.478425e+03
  7.630732e+00    3.501346e+03
  7.683850e+00    3.514916e+03
  7.736968e+00    3.587644e+03
  7.790086e+00    3.488720e+03
  7.843204e+00    3.318602e+03
  7.896322e+00    3.203098e+03
  7.949441e+00    3.172041e+03
  8.002559e+00    3.187302e+03
  8.055677e+00    3.142303e+03
  8.108795e+00    3.060118e+03
  8.161913e+00    3.009786e+03
  8.215031e+00    2.961929e+03
  8.268150e+00    2.920328e+03
  8.321268e+00    2.886957e+03
  8.374386e+00    2.863167e+03
  8.427504e+00    2.847733e+03
  8.480622e+00    2.842330e+03
  8.533740e+00    2.797010e+03
  8.586859e+00    2.832239e+03
  8.639977e+00    2.817700e+03
  8.693095e+00    2.807112e+03
  8.746213e+00    2.817753e+03
  8.799331e+00    2.803012e+03
  8.852449e+00    2.777644e+03
  8.905568e+00    2.779802e+03
  8.958686e+00    2.780634e+03
  9.011804e+00    2.777552e+03
  9.064922e+00    2.733252e+03
  9.118040e+00    2.708053e+03
  9.171158e+00    2.686518e+03
  9.224276e+00    2.641203e+03
  9.277395e+00    2.591579e+03
  9.330513e+00    2.559334e+03
  9.383631e+00    2.535238e+03
  9.436749e+00    2.522551e+03
  9.489867e+00    2.541484e+03
  9.542985e+00    2.551312e+03
  9.596104e+00    2.554194e+03
  9.649222e+00    2.559156e+03
  9.702340e+00    2.550557e+03
  9.755458e+00    2.534752e+03
  9.808576e+00    2.529112e+03
  9.861694e+00    2.525286e+03
  9.914813e+00    2.510827e+03
  9.967931e+00    2.488618e+03
  1.002105e+01    2.463263e+03
  1.007417e+01    2.446338e+03
  1.012729e+01    2.428026e+03
  1.018040e+01    2.408281e+03
  1.023352e+01    2.368108e+03
  1.028664e+01    2.331500e+03
  1.033976e+01    2.317639e+03
  1.039288e+01    2.338776e+03
  1.044599e+01    2.329719e+03
  1.049911e+01    2.332813e+03
  1.055223e+01    2.324148e+03
  1.060535e+01    2.324836e+03
  1.065847e+01    2.312038e+03
  1.071158e+01    2.302280e+03
  1.076470e+01    2.291156e+03
  1.081782e+01    2.289238e+03
  1.087094e+01    2.280434e+03
  1.092406e+01    2.293688e+03
  1.097718e+01    2.301532e+03
  1.103029e+01    2.300056e+03
  1.108341e+01    2.288308e+03
  1.113653e+01    2.268442e+03
  1.118965e+01    2.246022e+03
  1.124277e+01    2.233104e+03
  1.129588e+01    2.227336e+03
  1.134900e+01    2.223503e+03
  1.140212e+01    2.234063e+03
  1.145524e+01    2.234760e+03
  1.150836e+01    2.243505e+03
  1.156148e+01    2.241836e+03
  1.161459e+01    2.240988e+03
  1.166771e+01    2.221026e+03
  1.172083e+01    2.221974e+03
  1.177395e+01    2.202994e+03
  1.182707e+01    2.196802e+03
  1.188018e+01    2.197208e+03
  1.193330e+01    2.184524e+03
  1.198642e+01    2.163791e+03
  1.203954e+01    2.144663e+03
  1.209266e+01    2.138719e+03
  1.214578e+01    2.131799e+03
  1.219889e+01    2.140946e+03
  1.225201e+01    2.143160e+03
  1.230513e+01    2.133990e+03
  1.235825e+01    2.131670e+03
  1.241137e+01    2.115019e+03
  1.246448e+01    2.112475e+03
  1.251760e+01    2.109250e+03
  1.257072e+01    2.103697e+03
  1.262384e+01    2.110545e+03
  1.267696e+01    2.097452e+03
  1.273008e+01    2.081380e+03
  1.278319e+01    2.072315e+03
  1.283631e+01    2.060872e+03
  1.288943e+01    2.055601e+03
  1.294255e+01    2.045060e+03
  1.299567e+01    2.039814e+03
  1.304878e+01    2.035289e+03
  1.310190e+01    2.034065e+03
  1.315502e+01    2.027886e+03
  1.320814e+01    2.006157e+03
  1.326126e+01    1.982287e+03
  1.331437e+01    1.974944e+03
  1.336749e+01    1.969594e+03
  1.342061e+01    1.956984e+03
  1.347373e+01    1.977401e+03
  1.352685e+01    1.973643e+03
  1.357997e+01    1.961587e+03
  1.363308e+01    1.951804e+03
  1.368620e+01    1.945301e+03
  1.373932e+01    1.940125e+03
  1.379244e+01    1.933079e+03
  1.384556e+01    1.925456e+03
  1.389867e+01    1.916856e+03
  1.395179e+01    1.907662e+03
  1.400491e+01    1.906176e+03
  1.405803e+01    1.902221e+03
  1.411115e+01    1.894760e+03
  1.416427e+01    1.884890e+03
  1.421738e+01    1.879782e+03
  1.427050e+01    1.871300e+03
  1.432362e+01    1.874139e+03
  1.437674e+01    1.870691e+03
  1.442986e+01    1.859583e+03
  1.448297e+01    1.852624e+03
  1.453609e+01    1.846141e+03
  1.458921e+01    1.836051e+03
  1.464233e+01    1.832873e+03
  1.469545e+01    1.827218e+03
  1.474857e+01    1.807770e+03
  1.480168e+01    1.818007e+03
  1.485480e+01    1.814835e+03
  1.490792e+01    1.808050e+03
  1.496104e+01    1.801473e+03
  1.501416e+01    1.799130e+03
  1.506727e+01    1.795767e+03
  1.512039e+01    1.793509e+03
  1.517351e+01    1.805803e+03
  1.522663e+01    1.818270e+03
  1.527975e+01    1.816495e+03
  1.533286e+01    1.801293e+03
  1.538598e+01    1.793087e+03
  1.543910e+01    1.783945e+03
  1.549222e+01    1.778844e+03
  1.554534e+01    1.777951e+03
  1.559846e+01    1.774913e+03
  1.565157e+01    1.768958e+03
  1.570469e+01    1.762640e+03
  1.575781e+01    1.760066e+03
  1.581093e+01    1.757328e+03
  1.586405e+01    1.752763e+03
  1.591716e+01    1.748048e+03
  1.597028e+01    1.743353e+03
  1.602340e+01    1.727982e+03
  1.607652e+01    1.717170e+03
  1.612964e+01    1.692743e+03
  1.618276e+01    1.681098e+03
  1.623587e+01    1.683088e+03
  1.628899e+01    1.698893e+03
  1.634211e+01    1.696978e+03
  1.639523e+01    1.691929e+03
  1.644835e+01    1.693397e+03
  1.650146e+01    1.688023e+03
  1.655458e+01    1.685991e+03
  1.660770e+01    1.682491e+03
  1.666082e+01    1.677811e+03
  1.671394e+01    1.676177e+03
  1.676706e+01    1.670183e+03
  1.682017e+01    1.683351e+03
  1.687329e+01    1.672590e+03
  1.692641e+01    1.667478e+03
  1.697953e+01    1.661411e+03
  1.703265e+01    1.658326e+03
  1.708576e+01    1.656188e+03
  1.713888e+01    1.648393e+03
  1.719200e+01    1.647474e+03
  1.724512e+01    1.639492e+03
  1.729824e+01    1.640334e+03
  1.735136e+01    1.632148e+03
  1.740447e+01    1.610943e+03
  1.745759e+01    1.619567e+03
  1.751071e+01    1.621594e+03
  1.756383e+01    1.630226e+03
  1.761695e+01    1.616421e+03
  1.767006e+01    1.614114e+03
  1.772318e+01    1.604779e+03
  1.777630e+01    1.604096e+03
  1.782942e+01    1.595008e+03
  1.788254e+01    1.590299e+03
  1.793565e+01    1.588294e+03
  1.798877e+01    1.586889e+03
  1.804189e+01    1.579331e+03
  1.809501e+01    1.575468e+03
  1.814813e+01    1.573450e+03
  1.820125e+01    1.567534e+03
  1.825436e+01    1.571850e+03
  1.830748e+01    1.565222e+03
  1.836060e+01    1.560857e+03
  1.841372e+01    1.558269e+03
  1.846684e+01    1.554158e+03
  1.851995e+01    1.535650e+03
  1.857307e+01    1.520838e+03
  1.862619e+01    1.511965e+03
  1.867931e+01    1.508403e+03
  1.873243e+01    1.527276e+03
  1.878555e+01    1.528599e+03
  1.883866e+01    1.528181e+03
  1.889178e+01    1.527113e+03
  1.894490e+01    1.538957e+03
  1.899802e+01    1.529050e+03
  1.905114e+01    1.524688e+03
  1.910425e+01    1.520157e+03
  1.915737e+01    1.515777e+03
  1.921049e+01    1.511844e+03
  1.926361e+01    1.507509e+03
  1.931673e+01    1.503859e+03
  1.936985e+01    1.502285e+03
  1.942296e+01    1.499897e+03
  1.947608e+01    1.499849e+03
  1.952920e+01    1.495914e+03
  1.958232e+01    1.495175e+03
  1.963544e+01    1.500330e+03
  1.968855e+01    1.486914e+03
  1.974167e+01    1.475317e+03
  1.979479e+01    1.481098e+03
  1.984791e+01    1.478075e+03
  1.990103e+01    1.476197e+03
  1.995414e+01    1.474623e+03
  2.000726e+01    1.472319e+03
  2.006038e+01    1.466634e+03
  2.011350e+01    1.463287e+03
  2.016662e+01    1.456677e+03
  2.021974e+01    1.459925e+03
  2.027285e+01    1.465928e+03
  2.032597e+01    1.451695e+03
  2.037909e+01    1.447365e+03
  2.043221e+01    1.441914e+03
  2.048533e+01    1.439495e+03
  2.053844e+01    1.439842e+03
  2.059156e+01    1.433339e+03
  2.064468e+01    1.432266e+03
  2.069780e+01    1.412069e+03
  2.075092e+01    1.388360e+03
  2.080404e+01    1.374691e+03
  2.085715e+01    1.392358e+03
  2.091027e+01    1.419020e+03
  2.096339e+01    1.426071e+03
  2.101651e+01    1.431844e+03
  2.106963e+01    1.435530e+03
  2.112274e+01    1.438208e+03
  2.117586e+01    1.440036e+03
  2.122898e+01    1.442734e+03
  2.128210e+01    1.439901e+03
  2.133522e+01    1.441284e+03
  2.138834e+01    1.438911e+03
  2.144145e+01    1.438971e+03
  2.149457e+01    1.438300e+03
  2.154769e+01    1.437498e+03
  2.160081e+01    1.435800e+03
  2.165393e+01    1.437159e+03
  2.170704e+01    1.438066e+03
  2.176016e+01    1.428741e+03
  2.181328e+01    1.437490e+03
  2.186640e+01    1.437710e+03
  2.191952e+01    1.436007e+03
  2.197263e+01    1.434205e+03
  2.202575e+01    1.431860e+03
  2.207887e+01    1.432008e+03
  2.213199e+01    1.430205e+03
  2.218511e+01    1.428183e+03
  2.223823e+01    1.428633e+03
  2.229134e+01    1.426694e+03
  2.234446e+01    1.425937e+03
  2.239758e+01    1.425451e+03
  2.245070e+01    1.422760e+03
  2.250382e+01    1.423952e+03
  2.255693e+01    1.421234e+03
  2.261005e+01    1.402760e+03
  2.266317e+01    1.389930e+03
  2.271629e+01    1.380417e+03
  2.276941e+01    1.371766e+03
  2.282253e+01    1.365310e+03
  2.287564e+01    1.361881e+03
  2.292876e+01    1.356053e+03
  2.298188e+01    1.354432e+03
  2.303500e+01    1.351955e+03
  2.308812e+01    1.348416e+03
  2.314123e+01    1.346563e+03
  2.319435e+01    1.341776e+03
  2.324747e+01    1.335566e+03
  2.330059e+01    1.331481e+03
  2.335371e+01    1.329552e+03
  2.340683e+01    1.324142e+03
  2.345994e+01    1.321203e+03
  2.351306e+01    1.318050e+03
  2.356618e+01    1.314117e+03
  2.361930e+01    1.309125e+03
  2.367242e+01    1.303926e+03
  2.372553e+01    1.297061e+03
  2.377865e+01    1.291614e+03
  2.383177e+01    1.288312e+03
  2.388489e+01    1.283930e+03
  2.393801e+01    1.280521e+03
  2.399113e+01    1.280368e+03
  2.404424e+01    1.278503e+03
  2.409736e+01    1.277943e+03
  2.415048e+01    1.273196e+03
  2.420360e+01    1.269764e+03
  2.425672e+01    1.266062e+03
  2.430983e+01    1.263918e+03
  2.436295e+01    1.262196e+03
  2.441607e+01    1.258927e+03
  2.446919e+01    1.257054e+03
  2.452231e+01    1.256591e+03
  2.457542e+01    1.253330e+03
  2.462854e+01    1.248714e+03
  2.468166e+01    1.249618e+03
  2.473478e+01    1.245132e+03
  2.478790e+01    1.238924e+03
  2.484102e+01    1.234405e+03
  2.489413e+01    1.230002e+03
  2.494725e+01    1.226125e+03
  2.500037e+01    1.220214e+03
  2.505349e+01    1.215638e+03
  2.510661e+01    1.212233e+03
  2.515972e+01    1.210252e+03
  2.521284e+01    1.207982e+03
  2.526596e+01    1.207675e+03
  2.531908e+01    1.204271e+03
  2.537220e+01    1.203829e+03
  2.542532e+01    1.200701e+03
  2.547843e+01    1.198575e+03
  2.553155e+01    1.191725e+03
  2.558467e+01    1.188672e+03
  2.563779e+01    1.181336e+03
  2.569091e+01    1.173380e+03
  2.574402e+01    1.162623e+03
  2.579714e+01    1.157859e+03
  2.585026e+01    1.149577e+03
  2.590338e+01    1.145076e+03
  2.595650e+01    1.142291e+03
  2.600962e+01    1.143365e+03
  2.606273e+01    1.141499e+03
  2.611585e+01    1.140370e+03
  2.616897e+01    1.137627e+03
  2.622209e+01    1.141428e+03
  2.627521e+01    1.134016e+03
  2.632832e+01    1.126827e+03
  2.638144e+01    1.125934e+03
  2.643456e+01    1.123359e+03
  2.648768e+01    1.096907e+03
  2.654080e+01    1.084878e+03
