# == pyFAI calibration ==
# Distance Sample to Detector: 0.2946421923531691 m
# PONI: 2.875e-01, 2.439e-01 m
# Rotations: -0.010990 -0.009181 0.000003 rad
# 
# == Fit2d calibration ==
# Distance Sample-beamCenter: 294.672 mm
# Center: x=1436.809, y=1655.851 pix
# Tilt: 0.820 deg  TiltPlanRot: -39.874 deg
# 
# Detector Pilatus 2M	 PixelSize= 1.720e-04, 1.720e-04 m
#    Detector has a mask: True 
#    Detector has a dark current: False 
#    detector has a flat field: False 
# 
# Wavelength: 2.0732883349524408e-11 m
# Mask applied: from detector
# Dark current applied: False
# Flat field applied: False
# Polarization factor: None
# Normalization factor: 1.0
# --> /gpfs/current/raw/FMue_3/FMue_3_20231024_175355_00050.dat
#        q_A^-1             I 
  3.483473e-02             nan
  8.795289e-02             nan
  1.410711e-01             nan
  1.941892e-01             nan
  2.473074e-01             nan
  3.004255e-01             nan
  3.535437e-01             nan
  4.066619e-01    1.072445e+04
  4.597800e-01    1.003719e+04
  5.128982e-01    8.878895e+03
  5.660163e-01    8.367536e+03
  6.191345e-01    8.276158e+03
  6.722527e-01    8.400954e+03
  7.253708e-01    8.831486e+03
  7.784890e-01    1.147733e+04
  8.316071e-01    2.096015e+04
  8.847253e-01    1.727785e+04
  9.378435e-01    1.068028e+04
  9.909616e-01    1.034208e+04
  1.044080e+00    1.017617e+04
  1.097198e+00    9.845481e+03
  1.150316e+00    1.017601e+04
  1.203434e+00    1.086947e+04
  1.256552e+00    1.186082e+04
  1.309671e+00    1.260756e+04
  1.362789e+00    1.350735e+04
  1.415907e+00    1.417867e+04
  1.469025e+00    1.441340e+04
  1.522143e+00    1.436828e+04
  1.575261e+00    1.395272e+04
  1.628380e+00    1.432006e+04
  1.681498e+00    1.534428e+04
  1.734616e+00    1.278795e+04
  1.787734e+00    1.060682e+04
  1.840852e+00    9.714302e+03
  1.893970e+00    9.112909e+03
  1.947089e+00    8.983091e+03
  2.000207e+00    8.589169e+03
  2.053325e+00    7.892887e+03
  2.106443e+00    7.682917e+03
  2.159561e+00    7.825497e+03
  2.212679e+00    7.998269e+03
  2.265797e+00    8.237958e+03
  2.318916e+00    8.191277e+03
  2.372034e+00    8.654165e+03
  2.425152e+00    1.173746e+04
  2.478270e+00    9.205278e+03
  2.531388e+00    8.311891e+03
  2.584506e+00    8.836927e+03
  2.637625e+00    8.804195e+03
  2.690743e+00    8.962096e+03
  2.743861e+00    1.089122e+04
  2.796979e+00    8.151060e+03
  2.850097e+00    5.995754e+03
  2.903215e+00    5.509874e+03
  2.956334e+00    5.327681e+03
  3.009452e+00    5.400818e+03
  3.062570e+00    6.164582e+03
  3.115688e+00    7.935462e+03
  3.168806e+00    8.785951e+03
  3.221924e+00    8.878262e+03
  3.275043e+00    8.420765e+03
  3.328161e+00    6.280383e+03
  3.381279e+00    5.952670e+03
  3.434397e+00    5.383664e+03
  3.487515e+00    5.085627e+03
  3.540633e+00    5.012385e+03
  3.593751e+00    4.995731e+03
  3.646870e+00    5.474778e+03
  3.699988e+00    5.411936e+03
  3.753106e+00    5.070886e+03
  3.806224e+00    5.125201e+03
  3.859342e+00    5.439458e+03
  3.912460e+00    5.500923e+03
  3.965579e+00    5.274357e+03
  4.018697e+00    5.590341e+03
  4.071815e+00    7.251081e+03
  4.124933e+00    7.902211e+03
  4.178051e+00    7.977913e+03
  4.231169e+00    6.703042e+03
  4.284288e+00    6.313035e+03
  4.337406e+00    6.964525e+03
  4.390524e+00    7.706648e+03
  4.443642e+00    9.973759e+03
  4.496760e+00    1.174073e+04
  4.549878e+00    9.019339e+03
  4.602997e+00    6.039196e+03
  4.656115e+00    5.243495e+03
  4.709233e+00    5.332996e+03
  4.762351e+00    5.837632e+03
  4.815469e+00    5.574338e+03
  4.868587e+00    5.315346e+03
  4.921705e+00    5.501424e+03
  4.974824e+00    5.415719e+03
  5.027942e+00    5.375959e+03
  5.081060e+00    5.441181e+03
  5.134178e+00    5.177903e+03
  5.187296e+00    5.005877e+03
  5.240414e+00    4.994566e+03
  5.293533e+00    4.737220e+03
  5.346651e+00    4.473386e+03
  5.399769e+00    4.288155e+03
  5.452887e+00    4.337359e+03
  5.506005e+00    4.440959e+03
  5.559123e+00    4.041199e+03
  5.612242e+00    3.796381e+03
  5.665360e+00    3.724811e+03
  5.718478e+00    3.525125e+03
  5.771596e+00    3.454842e+03
  5.824714e+00    3.512633e+03
  5.877832e+00    3.569156e+03
  5.930951e+00    3.634643e+03
  5.984069e+00    3.738763e+03
  6.037187e+00    3.729651e+03
  6.090305e+00    3.707957e+03
  6.143423e+00    3.647809e+03
  6.196541e+00    3.707193e+03
  6.249660e+00    4.126048e+03
  6.302778e+00    4.228110e+03
  6.355896e+00    3.923608e+03
  6.409014e+00    3.916794e+03
  6.462132e+00    3.758523e+03
  6.515250e+00    3.665845e+03
  6.568368e+00    3.580830e+03
  6.621487e+00    3.552308e+03
  6.674605e+00    3.494687e+03
  6.727723e+00    3.413270e+03
  6.780841e+00    3.369091e+03
  6.833959e+00    3.367574e+03
  6.887077e+00    3.327953e+03
  6.940196e+00    3.283663e+03
  6.993314e+00    3.339903e+03
  7.046432e+00    3.388805e+03
  7.099550e+00    3.496236e+03
  7.152668e+00    3.490212e+03
  7.205786e+00    3.319384e+03
  7.258905e+00    3.232149e+03
  7.312023e+00    3.147460e+03
  7.365141e+00    3.090031e+03
  7.418259e+00    3.086124e+03
  7.471377e+00    3.103484e+03
  7.524495e+00    3.163609e+03
  7.577614e+00    3.185765e+03
  7.630732e+00    3.218214e+03
  7.683850e+00    3.379162e+03
  7.736968e+00    3.592163e+03
  7.790086e+00    3.607350e+03
  7.843204e+00    3.424295e+03
  7.896322e+00    3.189217e+03
  7.949441e+00    3.018012e+03
  8.002559e+00    2.958295e+03
  8.055677e+00    2.955416e+03
  8.108795e+00    2.978149e+03
  8.161913e+00    3.064141e+03
  8.215031e+00    3.139871e+03
  8.268150e+00    3.043385e+03
  8.321268e+00    2.958458e+03
  8.374386e+00    2.950955e+03
  8.427504e+00    2.918252e+03
  8.480622e+00    2.906118e+03
  8.533740e+00    2.903702e+03
  8.586859e+00    2.933948e+03
  8.639977e+00    2.917912e+03
  8.693095e+00    2.877763e+03
  8.746213e+00    2.855706e+03
  8.799331e+00    2.837616e+03
  8.852449e+00    2.809677e+03
  8.905568e+00    2.808302e+03
  8.958686e+00    2.838348e+03
  9.011804e+00    2.851270e+03
  9.064922e+00    2.779680e+03
  9.118040e+00    2.681734e+03
  9.171158e+00    2.649487e+03
  9.224276e+00    2.652970e+03
  9.277395e+00    2.625181e+03
  9.330513e+00    2.607610e+03
  9.383631e+00    2.604767e+03
  9.436749e+00    2.602287e+03
  9.489867e+00    2.616049e+03
  9.542985e+00    2.612040e+03
  9.596104e+00    2.590060e+03
  9.649222e+00    2.562109e+03
  9.702340e+00    2.542131e+03
  9.755458e+00    2.535416e+03
  9.808576e+00    2.522192e+03
  9.861694e+00    2.522683e+03
  9.914813e+00    2.528306e+03
  9.967931e+00    2.526828e+03
  1.002105e+01    2.490258e+03
  1.007417e+01    2.441270e+03
  1.012729e+01    2.409980e+03
  1.018040e+01    2.405917e+03
  1.023352e+01    2.403513e+03
  1.028664e+01    2.394502e+03
  1.033976e+01    2.399884e+03
  1.039288e+01    2.415482e+03
  1.044599e+01    2.395604e+03
  1.049911e+01    2.395382e+03
  1.055223e+01    2.374967e+03
  1.060535e+01    2.367650e+03
  1.065847e+01    2.358318e+03
  1.071158e+01    2.353330e+03
  1.076470e+01    2.344444e+03
  1.081782e+01    2.356975e+03
  1.087094e+01    2.357875e+03
  1.092406e+01    2.350162e+03
  1.097718e+01    2.339362e+03
  1.103029e+01    2.320282e+03
  1.108341e+01    2.306014e+03
  1.113653e+01    2.290757e+03
  1.118965e+01    2.277002e+03
  1.124277e+01    2.267564e+03
  1.129588e+01    2.263371e+03
  1.134900e+01    2.250931e+03
  1.140212e+01    2.243353e+03
  1.145524e+01    2.226392e+03
  1.150836e+01    2.225727e+03
  1.156148e+01    2.218590e+03
  1.161459e+01    2.224364e+03
  1.166771e+01    2.219550e+03
  1.172083e+01    2.234991e+03
  1.177395e+01    2.227858e+03
  1.182707e+01    2.228826e+03
  1.188018e+01    2.240504e+03
  1.193330e+01    2.226829e+03
  1.198642e+01    2.210060e+03
  1.203954e+01    2.188121e+03
  1.209266e+01    2.179728e+03
  1.214578e+01    2.172018e+03
  1.219889e+01    2.175283e+03
  1.225201e+01    2.177118e+03
  1.230513e+01    2.179170e+03
  1.235825e+01    2.184036e+03
  1.241137e+01    2.171712e+03
  1.246448e+01    2.173808e+03
  1.251760e+01    2.177152e+03
  1.257072e+01    2.172751e+03
  1.262384e+01    2.170969e+03
  1.267696e+01    2.154351e+03
  1.273008e+01    2.136181e+03
  1.278319e+01    2.126014e+03
  1.283631e+01    2.113331e+03
  1.288943e+01    2.106150e+03
  1.294255e+01    2.091918e+03
  1.299567e+01    2.086316e+03
  1.304878e+01    2.078359e+03
  1.310190e+01    2.075793e+03
  1.315502e+01    2.071370e+03
  1.320814e+01    2.046109e+03
  1.326126e+01    2.016398e+03
  1.331437e+01    1.999566e+03
  1.336749e+01    1.989761e+03
  1.342061e+01    1.973679e+03
  1.347373e+01    1.999584e+03
  1.352685e+01    2.002831e+03
  1.357997e+01    1.993466e+03
  1.363308e+01    1.983021e+03
  1.368620e+01    1.974531e+03
  1.373932e+01    1.965012e+03
  1.379244e+01    1.956397e+03
  1.384556e+01    1.949870e+03
  1.389867e+01    1.943608e+03
  1.395179e+01    1.936248e+03
  1.400491e+01    1.935336e+03
  1.405803e+01    1.931346e+03
  1.411115e+01    1.925058e+03
  1.416427e+01    1.916003e+03
  1.421738e+01    1.914639e+03
  1.427050e+01    1.908021e+03
  1.432362e+01    1.911815e+03
  1.437674e+01    1.912197e+03
  1.442986e+01    1.901014e+03
  1.448297e+01    1.892094e+03
  1.453609e+01    1.884479e+03
  1.458921e+01    1.875549e+03
  1.464233e+01    1.871079e+03
  1.469545e+01    1.865990e+03
  1.474857e+01    1.849518e+03
  1.480168e+01    1.862051e+03
  1.485480e+01    1.859352e+03
  1.490792e+01    1.853538e+03
  1.496104e+01    1.845224e+03
  1.501416e+01    1.842476e+03
  1.506727e+01    1.836895e+03
  1.512039e+01    1.833571e+03
  1.517351e+01    1.846694e+03
  1.522663e+01    1.856504e+03
  1.527975e+01    1.855067e+03
  1.533286e+01    1.837269e+03
  1.538598e+01    1.828065e+03
  1.543910e+01    1.818271e+03
  1.549222e+01    1.815316e+03
  1.554534e+01    1.814995e+03
  1.559846e+01    1.815222e+03
  1.565157e+01    1.807341e+03
  1.570469e+01    1.800581e+03
  1.575781e+01    1.796329e+03
  1.581093e+01    1.792223e+03
  1.586405e+01    1.789247e+03
  1.591716e+01    1.784303e+03
  1.597028e+01    1.778489e+03
  1.602340e+01    1.762679e+03
  1.607652e+01    1.752043e+03
  1.612964e+01    1.729454e+03
  1.618276e+01    1.717590e+03
  1.623587e+01    1.720108e+03
  1.628899e+01    1.737043e+03
  1.634211e+01    1.736193e+03
  1.639523e+01    1.730937e+03
  1.644835e+01    1.732073e+03
  1.650146e+01    1.727284e+03
  1.655458e+01    1.726755e+03
  1.660770e+01    1.720515e+03
  1.666082e+01    1.715134e+03
  1.671394e+01    1.714512e+03
  1.676706e+01    1.709043e+03
  1.682017e+01    1.722529e+03
  1.687329e+01    1.711257e+03
  1.692641e+01    1.705754e+03
  1.697953e+01    1.699935e+03
  1.703265e+01    1.695931e+03
  1.708576e+01    1.694178e+03
  1.713888e+01    1.686845e+03
  1.719200e+01    1.684893e+03
  1.724512e+01    1.677193e+03
  1.729824e+01    1.676743e+03
  1.735136e+01    1.671165e+03
  1.740447e+01    1.648991e+03
  1.745759e+01    1.657040e+03
  1.751071e+01    1.657694e+03
  1.756383e+01    1.670107e+03
  1.761695e+01    1.651136e+03
  1.767006e+01    1.647964e+03
  1.772318e+01    1.638618e+03
  1.777630e+01    1.638151e+03
  1.782942e+01    1.629521e+03
  1.788254e+01    1.626341e+03
  1.793565e+01    1.624361e+03
  1.798877e+01    1.623482e+03
  1.804189e+01    1.613673e+03
  1.809501e+01    1.610237e+03
  1.814813e+01    1.607793e+03
  1.820125e+01    1.602004e+03
  1.825436e+01    1.608891e+03
  1.830748e+01    1.602271e+03
  1.836060e+01    1.597429e+03
  1.841372e+01    1.595433e+03
  1.846684e+01    1.591699e+03
  1.851995e+01    1.570688e+03
  1.857307e+01    1.556789e+03
  1.862619e+01    1.547925e+03
  1.867931e+01    1.542965e+03
  1.873243e+01    1.562466e+03
  1.878555e+01    1.565897e+03
  1.883866e+01    1.564479e+03
  1.889178e+01    1.563872e+03
  1.894490e+01    1.574455e+03
  1.899802e+01    1.565864e+03
  1.905114e+01    1.560537e+03
  1.910425e+01    1.554065e+03
  1.915737e+01    1.550706e+03
  1.921049e+01    1.546834e+03
  1.926361e+01    1.543448e+03
  1.931673e+01    1.538926e+03
  1.936985e+01    1.537899e+03
  1.942296e+01    1.535121e+03
  1.947608e+01    1.535563e+03
  1.952920e+01    1.532141e+03
  1.958232e+01    1.531881e+03
  1.963544e+01    1.536033e+03
  1.968855e+01    1.521224e+03
  1.974167e+01    1.510869e+03
  1.979479e+01    1.515146e+03
  1.984791e+01    1.513663e+03
  1.990103e+01    1.511340e+03
  1.995414e+01    1.510257e+03
  2.000726e+01    1.507290e+03
  2.006038e+01    1.502787e+03
  2.011350e+01    1.499073e+03
  2.016662e+01    1.492891e+03
  2.021974e+01    1.496691e+03
  2.027285e+01    1.503274e+03
  2.032597e+01    1.487036e+03
  2.037909e+01    1.482653e+03
  2.043221e+01    1.478138e+03
  2.048533e+01    1.476758e+03
  2.053844e+01    1.475759e+03
  2.059156e+01    1.469394e+03
  2.064468e+01    1.467584e+03
  2.069780e+01    1.447296e+03
  2.075092e+01    1.423595e+03
  2.080404e+01    1.408263e+03
  2.085715e+01    1.428143e+03
  2.091027e+01    1.455569e+03
  2.096339e+01    1.463078e+03
  2.101651e+01    1.466698e+03
  2.106963e+01    1.469485e+03
  2.112274e+01    1.476212e+03
  2.117586e+01    1.475746e+03
  2.122898e+01    1.478498e+03
  2.128210e+01    1.476423e+03
  2.133522e+01    1.476601e+03
  2.138834e+01    1.475679e+03
  2.144145e+01    1.475219e+03
  2.149457e+01    1.474844e+03
  2.154769e+01    1.473307e+03
  2.160081e+01    1.473036e+03
  2.165393e+01    1.474234e+03
  2.170704e+01    1.474758e+03
  2.176016e+01    1.465011e+03
  2.181328e+01    1.473689e+03
  2.186640e+01    1.475018e+03
  2.191952e+01    1.471076e+03
  2.197263e+01    1.469516e+03
  2.202575e+01    1.468374e+03
  2.207887e+01    1.467716e+03
  2.213199e+01    1.465764e+03
  2.218511e+01    1.465484e+03
  2.223823e+01    1.463834e+03
  2.229134e+01    1.461883e+03
  2.234446e+01    1.460381e+03
  2.239758e+01    1.459904e+03
  2.245070e+01    1.458503e+03
  2.250382e+01    1.459024e+03
  2.255693e+01    1.456807e+03
  2.261005e+01    1.437591e+03
  2.266317e+01    1.425831e+03
  2.271629e+01    1.417420e+03
  2.276941e+01    1.406475e+03
  2.282253e+01    1.399887e+03
  2.287564e+01    1.397288e+03
  2.292876e+01    1.391129e+03
  2.298188e+01    1.387650e+03
  2.303500e+01    1.386064e+03
  2.308812e+01    1.382640e+03
  2.314123e+01    1.380174e+03
  2.319435e+01    1.377344e+03
  2.324747e+01    1.369783e+03
  2.330059e+01    1.366963e+03
  2.335371e+01    1.363555e+03
  2.340683e+01    1.360370e+03
  2.345994e+01    1.356135e+03
  2.351306e+01    1.352229e+03
  2.356618e+01    1.347438e+03
  2.361930e+01    1.343075e+03
  2.367242e+01    1.339045e+03
  2.372553e+01    1.331758e+03
  2.377865e+01    1.330250e+03
  2.383177e+01    1.321752e+03
  2.388489e+01    1.318015e+03
  2.393801e+01    1.314381e+03
  2.399113e+01    1.313554e+03
  2.404424e+01    1.311285e+03
  2.409736e+01    1.309313e+03
  2.415048e+01    1.304124e+03
  2.420360e+01    1.301226e+03
  2.425672e+01    1.297039e+03
  2.430983e+01    1.295147e+03
  2.436295e+01    1.294017e+03
  2.441607e+01    1.290774e+03
  2.446919e+01    1.289124e+03
  2.452231e+01    1.289519e+03
  2.457542e+01    1.287540e+03
  2.462854e+01    1.283691e+03
  2.468166e+01    1.282874e+03
  2.473478e+01    1.276555e+03
  2.478790e+01    1.269964e+03
  2.484102e+01    1.268973e+03
  2.489413e+01    1.262481e+03
  2.494725e+01    1.259789e+03
  2.500037e+01    1.252069e+03
  2.505349e+01    1.250515e+03
  2.510661e+01    1.244996e+03
  2.515972e+01    1.241292e+03
  2.521284e+01    1.239843e+03
  2.526596e+01    1.240313e+03
  2.531908e+01    1.233376e+03
  2.537220e+01    1.231691e+03
  2.542532e+01    1.230429e+03
  2.547843e+01    1.228363e+03
  2.553155e+01    1.224023e+03
  2.558467e+01    1.212971e+03
  2.563779e+01    1.207012e+03
  2.569091e+01    1.201767e+03
  2.574402e+01    1.192810e+03
  2.579714e+01    1.183797e+03
  2.585026e+01    1.179648e+03
  2.590338e+01    1.171921e+03
  2.595650e+01    1.174545e+03
  2.600962e+01    1.165419e+03
  2.606273e+01    1.169747e+03
  2.611585e+01    1.166930e+03
  2.616897e+01    1.166102e+03
  2.622209e+01    1.162425e+03
  2.627521e+01    1.159977e+03
  2.632832e+01    1.148643e+03
  2.638144e+01    1.153253e+03
  2.643456e+01    1.150212e+03
  2.648768e+01    1.121247e+03
  2.654080e+01    1.122001e+03
