# == pyFAI calibration ==
# Distance Sample to Detector: 0.2946421923531691 m
# PONI: 2.875e-01, 2.439e-01 m
# Rotations: -0.010990 -0.009181 0.000003 rad
# 
# == Fit2d calibration ==
# Distance Sample-beamCenter: 294.672 mm
# Center: x=1436.809, y=1655.851 pix
# Tilt: 0.820 deg  TiltPlanRot: -39.874 deg
# 
# Detector Pilatus 2M	 PixelSize= 1.720e-04, 1.720e-04 m
#    Detector has a mask: True 
#    Detector has a dark current: False 
#    detector has a flat field: False 
# 
# Wavelength: 2.0732883349524408e-11 m
# Mask applied: from detector
# Dark current applied: False
# Flat field applied: False
# Polarization factor: None
# Normalization factor: 1.0
# --> /gpfs/current/raw/FMue_3/FMue_3_20231024_175355_00070.dat
#        q_A^-1             I 
  3.483473e-02             nan
  8.795289e-02             nan
  1.410711e-01             nan
  1.941892e-01             nan
  2.473074e-01             nan
  3.004255e-01             nan
  3.535437e-01             nan
  4.066619e-01    1.349618e+04
  4.597800e-01    1.235172e+04
  5.128982e-01    1.060507e+04
  5.660163e-01    9.684886e+03
  6.191345e-01    9.357038e+03
  6.722527e-01    9.208976e+03
  7.253708e-01    9.275206e+03
  7.784890e-01    9.476917e+03
  8.316071e-01    9.992141e+03
  8.847253e-01    1.067725e+04
  9.378435e-01    1.143093e+04
  9.909616e-01    1.190026e+04
  1.044080e+00    1.134783e+04
  1.097198e+00    1.055135e+04
  1.150316e+00    1.066916e+04
  1.203434e+00    1.131182e+04
  1.256552e+00    1.223778e+04
  1.309671e+00    1.288602e+04
  1.362789e+00    1.380866e+04
  1.415907e+00    1.448761e+04
  1.469025e+00    1.472860e+04
  1.522143e+00    1.464805e+04
  1.575261e+00    1.408750e+04
  1.628380e+00    1.337582e+04
  1.681498e+00    1.249481e+04
  1.734616e+00    1.158900e+04
  1.787734e+00    1.083388e+04
  1.840852e+00    1.020509e+04
  1.893970e+00    9.703654e+03
  1.947089e+00    9.513861e+03
  2.000207e+00    9.043056e+03
  2.053325e+00    8.322657e+03
  2.106443e+00    8.137502e+03
  2.159561e+00    8.319107e+03
  2.212679e+00    8.541159e+03
  2.265797e+00    8.846202e+03
  2.318916e+00    8.804398e+03
  2.372034e+00    8.650510e+03
  2.425152e+00    8.880002e+03
  2.478270e+00    9.019438e+03
  2.531388e+00    9.700612e+03
  2.584506e+00    1.008863e+04
  2.637625e+00    9.710952e+03
  2.690743e+00    9.061076e+03
  2.743861e+00    8.454531e+03
  2.796979e+00    7.306533e+03
  2.850097e+00    6.361892e+03
  2.903215e+00    6.007437e+03
  2.956334e+00    5.890576e+03
  3.009452e+00    5.977527e+03
  3.062570e+00    6.618180e+03
  3.115688e+00    8.495391e+03
  3.168806e+00    9.129974e+03
  3.221924e+00    7.871230e+03
  3.275043e+00    6.490534e+03
  3.328161e+00    5.882970e+03
  3.381279e+00    5.994433e+03
  3.434397e+00    5.580630e+03
  3.487515e+00    5.324473e+03
  3.540633e+00    5.245771e+03
  3.593751e+00    5.077909e+03
  3.646870e+00    5.063257e+03
  3.699988e+00    5.134106e+03
  3.753106e+00    5.268155e+03
  3.806224e+00    5.329581e+03
  3.859342e+00    5.345659e+03
  3.912460e+00    5.434853e+03
  3.965579e+00    5.628479e+03
  4.018697e+00    6.073240e+03
  4.071815e+00    6.794462e+03
  4.124933e+00    7.338083e+03
  4.178051e+00    7.271911e+03
  4.231169e+00    6.921118e+03
  4.284288e+00    6.857363e+03
  4.337406e+00    7.231821e+03
  4.390524e+00    7.919161e+03
  4.443642e+00    1.016989e+04
  4.496760e+00    1.223431e+04
  4.549878e+00    9.293671e+03
  4.602997e+00    6.263783e+03
  4.656115e+00    5.560223e+03
  4.709233e+00    5.476766e+03
  4.762351e+00    5.648367e+03
  4.815469e+00    5.604396e+03
  4.868587e+00    5.434006e+03
  4.921705e+00    5.378206e+03
  4.974824e+00    5.383785e+03
  5.027942e+00    5.333663e+03
  5.081060e+00    5.298612e+03
  5.134178e+00    5.195178e+03
  5.187296e+00    5.044553e+03
  5.240414e+00    4.856984e+03
  5.293533e+00    4.707942e+03
  5.346651e+00    4.555375e+03
  5.399769e+00    4.415384e+03
  5.452887e+00    4.416144e+03
  5.506005e+00    4.451727e+03
  5.559123e+00    4.107570e+03
  5.612242e+00    3.825447e+03
  5.665360e+00    3.726956e+03
  5.718478e+00    3.615010e+03
  5.771596e+00    3.529750e+03
  5.824714e+00    3.514810e+03
  5.877832e+00    3.559717e+03
  5.930951e+00    3.654096e+03
  5.984069e+00    3.764377e+03
  6.037187e+00    3.834171e+03
  6.090305e+00    3.824579e+03
  6.143423e+00    3.764387e+03
  6.196541e+00    3.839810e+03
  6.249660e+00    4.058536e+03
  6.302778e+00    4.124781e+03
  6.355896e+00    3.912845e+03
  6.409014e+00    3.774458e+03
  6.462132e+00    3.680743e+03
  6.515250e+00    3.577510e+03
  6.568368e+00    3.536040e+03
  6.621487e+00    3.498858e+03
  6.674605e+00    3.466625e+03
  6.727723e+00    3.487616e+03
  6.780841e+00    3.472348e+03
  6.833959e+00    3.417438e+03
  6.887077e+00    3.367867e+03
  6.940196e+00    3.323076e+03
  6.993314e+00    3.362667e+03
  7.046432e+00    3.422176e+03
  7.099550e+00    3.377409e+03
  7.152668e+00    3.316291e+03
  7.205786e+00    3.260325e+03
  7.258905e+00    3.192370e+03
  7.312023e+00    3.159608e+03
  7.365141e+00    3.160452e+03
  7.418259e+00    3.179558e+03
  7.471377e+00    3.206943e+03
  7.524495e+00    3.245271e+03
  7.577614e+00    3.272810e+03
  7.630732e+00    3.293316e+03
  7.683850e+00    3.419387e+03
  7.736968e+00    3.634886e+03
  7.790086e+00    3.636048e+03
  7.843204e+00    3.421590e+03
  7.896322e+00    3.199757e+03
  7.949441e+00    3.075415e+03
  8.002559e+00    3.028644e+03
  8.055677e+00    3.027990e+03
  8.108795e+00    3.043678e+03
  8.161913e+00    3.072429e+03
  8.215031e+00    3.060923e+03
  8.268150e+00    3.021843e+03
  8.321268e+00    2.980814e+03
  8.374386e+00    2.960974e+03
  8.427504e+00    2.943554e+03
  8.480622e+00    2.918584e+03
  8.533740e+00    2.859608e+03
  8.586859e+00    2.886712e+03
  8.639977e+00    2.880269e+03
  8.693095e+00    2.865468e+03
  8.746213e+00    2.851756e+03
  8.799331e+00    2.829630e+03
  8.852449e+00    2.817999e+03
  8.905568e+00    2.835195e+03
  8.958686e+00    2.855045e+03
  9.011804e+00    2.856250e+03
  9.064922e+00    2.786359e+03
  9.118040e+00    2.700468e+03
  9.171158e+00    2.664960e+03
  9.224276e+00    2.650792e+03
  9.277395e+00    2.627137e+03
  9.330513e+00    2.616061e+03
  9.383631e+00    2.612676e+03
  9.436749e+00    2.607335e+03
  9.489867e+00    2.615024e+03
  9.542985e+00    2.605244e+03
  9.596104e+00    2.577287e+03
  9.649222e+00    2.555428e+03
  9.702340e+00    2.547105e+03
  9.755458e+00    2.540904e+03
  9.808576e+00    2.533643e+03
  9.861694e+00    2.538198e+03
  9.914813e+00    2.549706e+03
  9.967931e+00    2.542546e+03
  1.002105e+01    2.501153e+03
  1.007417e+01    2.449710e+03
  1.012729e+01    2.419469e+03
  1.018040e+01    2.419292e+03
  1.023352e+01    2.413899e+03
  1.028664e+01    2.393156e+03
  1.033976e+01    2.384686e+03
  1.039288e+01    2.407330e+03
  1.044599e+01    2.394832e+03
  1.049911e+01    2.392680e+03
  1.055223e+01    2.370906e+03
  1.060535e+01    2.365514e+03
  1.065847e+01    2.358759e+03
  1.071158e+01    2.354388e+03
  1.076470e+01    2.346417e+03
  1.081782e+01    2.343928e+03
  1.087094e+01    2.330217e+03
  1.092406e+01    2.332579e+03
  1.097718e+01    2.331008e+03
  1.103029e+01    2.324593e+03
  1.108341e+01    2.316118e+03
  1.113653e+01    2.299817e+03
  1.118965e+01    2.288838e+03
  1.124277e+01    2.278719e+03
  1.129588e+01    2.273486e+03
  1.134900e+01    2.260967e+03
  1.140212e+01    2.254215e+03
  1.145524e+01    2.244417e+03
  1.150836e+01    2.244609e+03
  1.156148e+01    2.235135e+03
  1.161459e+01    2.236094e+03
  1.166771e+01    2.230657e+03
  1.172083e+01    2.246351e+03
  1.177395e+01    2.238783e+03
  1.182707e+01    2.237165e+03
  1.188018e+01    2.239615e+03
  1.193330e+01    2.223420e+03
  1.198642e+01    2.209204e+03
  1.203954e+01    2.189820e+03
  1.209266e+01    2.181328e+03
  1.214578e+01    2.171580e+03
  1.219889e+01    2.173121e+03
  1.225201e+01    2.173625e+03
  1.230513e+01    2.165904e+03
  1.235825e+01    2.173476e+03
  1.241137e+01    2.161403e+03
  1.246448e+01    2.163738e+03
  1.251760e+01    2.161616e+03
  1.257072e+01    2.157318e+03
  1.262384e+01    2.161156e+03
  1.267696e+01    2.145319e+03
  1.273008e+01    2.130050e+03
  1.278319e+01    2.121769e+03
  1.283631e+01    2.109362e+03
  1.288943e+01    2.105563e+03
  1.294255e+01    2.092295e+03
  1.299567e+01    2.084747e+03
  1.304878e+01    2.076824e+03
  1.310190e+01    2.072911e+03
  1.315502e+01    2.065782e+03
  1.320814e+01    2.038230e+03
  1.326126e+01    2.013655e+03
  1.331437e+01    1.998715e+03
  1.336749e+01    1.988641e+03
  1.342061e+01    1.975872e+03
  1.347373e+01    2.002227e+03
  1.352685e+01    2.007704e+03
  1.357997e+01    1.996328e+03
  1.363308e+01    1.985820e+03
  1.368620e+01    1.976103e+03
  1.373932e+01    1.967624e+03
  1.379244e+01    1.962514e+03
  1.384556e+01    1.955468e+03
  1.389867e+01    1.948582e+03
  1.395179e+01    1.940767e+03
  1.400491e+01    1.939283e+03
  1.405803e+01    1.936204e+03
  1.411115e+01    1.928679e+03
  1.416427e+01    1.918712e+03
  1.421738e+01    1.916721e+03
  1.427050e+01    1.907949e+03
  1.432362e+01    1.909332e+03
  1.437674e+01    1.906821e+03
  1.442986e+01    1.894901e+03
  1.448297e+01    1.889455e+03
  1.453609e+01    1.881747e+03
  1.458921e+01    1.873448e+03
  1.464233e+01    1.869410e+03
  1.469545e+01    1.862872e+03
  1.474857e+01    1.843942e+03
  1.480168e+01    1.855389e+03
  1.485480e+01    1.853196e+03
  1.490792e+01    1.849406e+03
  1.496104e+01    1.842947e+03
  1.501416e+01    1.839411e+03
  1.506727e+01    1.834874e+03
  1.512039e+01    1.831164e+03
  1.517351e+01    1.842097e+03
  1.522663e+01    1.856606e+03
  1.527975e+01    1.851345e+03
  1.533286e+01    1.836084e+03
  1.538598e+01    1.824074e+03
  1.543910e+01    1.815667e+03
  1.549222e+01    1.813440e+03
  1.554534e+01    1.812778e+03
  1.559846e+01    1.811402e+03
  1.565157e+01    1.803129e+03
  1.570469e+01    1.796534e+03
  1.575781e+01    1.794553e+03
  1.581093e+01    1.789483e+03
  1.586405e+01    1.788013e+03
  1.591716e+01    1.782556e+03
  1.597028e+01    1.776970e+03
  1.602340e+01    1.761968e+03
  1.607652e+01    1.752121e+03
  1.612964e+01    1.729282e+03
  1.618276e+01    1.715528e+03
  1.623587e+01    1.717726e+03
  1.628899e+01    1.735126e+03
  1.634211e+01    1.735672e+03
  1.639523e+01    1.728104e+03
  1.644835e+01    1.729317e+03
  1.650146e+01    1.723052e+03
  1.655458e+01    1.720946e+03
  1.660770e+01    1.716054e+03
  1.666082e+01    1.711354e+03
  1.671394e+01    1.711971e+03
  1.676706e+01    1.707013e+03
  1.682017e+01    1.720514e+03
  1.687329e+01    1.709916e+03
  1.692641e+01    1.702665e+03
  1.697953e+01    1.697990e+03
  1.703265e+01    1.693235e+03
  1.708576e+01    1.691547e+03
  1.713888e+01    1.683461e+03
  1.719200e+01    1.682296e+03
  1.724512e+01    1.675425e+03
  1.729824e+01    1.676666e+03
  1.735136e+01    1.669085e+03
  1.740447e+01    1.647833e+03
  1.745759e+01    1.654611e+03
  1.751071e+01    1.656558e+03
  1.756383e+01    1.665975e+03
  1.761695e+01    1.648580e+03
  1.767006e+01    1.646138e+03
  1.772318e+01    1.637208e+03
  1.777630e+01    1.635567e+03
  1.782942e+01    1.627569e+03
  1.788254e+01    1.624287e+03
  1.793565e+01    1.620652e+03
  1.798877e+01    1.618521e+03
  1.804189e+01    1.612520e+03
  1.809501e+01    1.606693e+03
  1.814813e+01    1.605280e+03
  1.820125e+01    1.600388e+03
  1.825436e+01    1.605494e+03
  1.830748e+01    1.599884e+03
  1.836060e+01    1.594948e+03
  1.841372e+01    1.592359e+03
  1.846684e+01    1.587769e+03
  1.851995e+01    1.568132e+03
  1.857307e+01    1.553475e+03
  1.862619e+01    1.543981e+03
  1.867931e+01    1.540699e+03
  1.873243e+01    1.559805e+03
  1.878555e+01    1.562271e+03
  1.883866e+01    1.560430e+03
  1.889178e+01    1.560077e+03
  1.894490e+01    1.572356e+03
  1.899802e+01    1.561842e+03
  1.905114e+01    1.556550e+03
  1.910425e+01    1.552222e+03
  1.915737e+01    1.547176e+03
  1.921049e+01    1.542338e+03
  1.926361e+01    1.540152e+03
  1.931673e+01    1.537377e+03
  1.936985e+01    1.535454e+03
  1.942296e+01    1.531577e+03
  1.947608e+01    1.531530e+03
  1.952920e+01    1.528078e+03
  1.958232e+01    1.529021e+03
  1.963544e+01    1.534185e+03
  1.968855e+01    1.519071e+03
  1.974167e+01    1.508582e+03
  1.979479e+01    1.512394e+03
  1.984791e+01    1.511787e+03
  1.990103e+01    1.509258e+03
  1.995414e+01    1.506959e+03
  2.000726e+01    1.505280e+03
  2.006038e+01    1.500965e+03
  2.011350e+01    1.495512e+03
  2.016662e+01    1.491050e+03
  2.021974e+01    1.494585e+03
  2.027285e+01    1.500179e+03
  2.032597e+01    1.484029e+03
  2.037909e+01    1.479752e+03
  2.043221e+01    1.474174e+03
  2.048533e+01    1.473416e+03
  2.053844e+01    1.473005e+03
  2.059156e+01    1.466180e+03
  2.064468e+01    1.463833e+03
  2.069780e+01    1.445335e+03
  2.075092e+01    1.419793e+03
  2.080404e+01    1.405951e+03
  2.085715e+01    1.425674e+03
  2.091027e+01    1.453028e+03
  2.096339e+01    1.459247e+03
  2.101651e+01    1.463683e+03
  2.106963e+01    1.468361e+03
  2.112274e+01    1.471034e+03
  2.117586e+01    1.473182e+03
  2.122898e+01    1.475315e+03
  2.128210e+01    1.474092e+03
  2.133522e+01    1.473102e+03
  2.138834e+01    1.472267e+03
  2.144145e+01    1.472061e+03
  2.149457e+01    1.471754e+03
  2.154769e+01    1.471463e+03
  2.160081e+01    1.470233e+03
  2.165393e+01    1.472569e+03
  2.170704e+01    1.471659e+03
  2.176016e+01    1.460171e+03
  2.181328e+01    1.469048e+03
  2.186640e+01    1.470268e+03
  2.191952e+01    1.467748e+03
  2.197263e+01    1.466583e+03
  2.202575e+01    1.465449e+03
  2.207887e+01    1.464782e+03
  2.213199e+01    1.462256e+03
  2.218511e+01    1.461568e+03
  2.223823e+01    1.460739e+03
  2.229134e+01    1.459031e+03
  2.234446e+01    1.457629e+03
  2.239758e+01    1.457876e+03
  2.245070e+01    1.455153e+03
  2.250382e+01    1.456037e+03
  2.255693e+01    1.453276e+03
  2.261005e+01    1.434996e+03
  2.266317e+01    1.423875e+03
  2.271629e+01    1.414342e+03
  2.276941e+01    1.404451e+03
  2.282253e+01    1.395871e+03
  2.287564e+01    1.392454e+03
  2.292876e+01    1.385555e+03
  2.298188e+01    1.385200e+03
  2.303500e+01    1.384031e+03
  2.308812e+01    1.379149e+03
  2.314123e+01    1.377862e+03
  2.319435e+01    1.374106e+03
  2.324747e+01    1.366545e+03
  2.330059e+01    1.362903e+03
  2.335371e+01    1.362164e+03
  2.340683e+01    1.356366e+03
  2.345994e+01    1.353469e+03
  2.351306e+01    1.350442e+03
  2.356618e+01    1.345005e+03
  2.361930e+01    1.340323e+03
  2.367242e+01    1.335448e+03
  2.372553e+01    1.329943e+03
  2.377865e+01    1.324606e+03
  2.383177e+01    1.320804e+03
  2.388489e+01    1.315274e+03
  2.393801e+01    1.309958e+03
  2.399113e+01    1.308862e+03
  2.404424e+01    1.307685e+03
  2.409736e+01    1.307431e+03
  2.415048e+01    1.302600e+03
  2.420360e+01    1.298607e+03
  2.425672e+01    1.295241e+03
  2.430983e+01    1.290901e+03
  2.436295e+01    1.290425e+03
  2.441607e+01    1.287863e+03
  2.446919e+01    1.286780e+03
  2.452231e+01    1.286272e+03
  2.457542e+01    1.280446e+03
  2.462854e+01    1.278095e+03
  2.468166e+01    1.277486e+03
  2.473478e+01    1.272952e+03
  2.478790e+01    1.266267e+03
  2.484102e+01    1.265859e+03
  2.489413e+01    1.258225e+03
  2.494725e+01    1.255084e+03
  2.500037e+01    1.251402e+03
  2.505349e+01    1.244729e+03
  2.510661e+01    1.239825e+03
  2.515972e+01    1.234918e+03
  2.521284e+01    1.238558e+03
  2.526596e+01    1.235821e+03
  2.531908e+01    1.228910e+03
  2.537220e+01    1.226484e+03
  2.542532e+01    1.224894e+03
  2.547843e+01    1.223427e+03
  2.553155e+01    1.217767e+03
  2.558467e+01    1.210282e+03
  2.563779e+01    1.203926e+03
  2.569091e+01    1.199086e+03
  2.574402e+01    1.187576e+03
  2.579714e+01    1.186540e+03
  2.585026e+01    1.176395e+03
  2.590338e+01    1.169971e+03
  2.595650e+01    1.167535e+03
  2.600962e+01    1.162148e+03
  2.606273e+01    1.163070e+03
  2.611585e+01    1.166898e+03
  2.616897e+01    1.164271e+03
  2.622209e+01    1.164482e+03
  2.627521e+01    1.156451e+03
  2.632832e+01    1.147751e+03
  2.638144e+01    1.148521e+03
  2.643456e+01    1.147508e+03
  2.648768e+01    1.126570e+03
  2.654080e+01    1.104281e+03
