# == pyFAI calibration ==
# Distance Sample to Detector: 0.2946421923531691 m
# PONI: 2.875e-01, 2.439e-01 m
# Rotations: -0.010990 -0.009181 0.000003 rad
# 
# == Fit2d calibration ==
# Distance Sample-beamCenter: 294.672 mm
# Center: x=1436.809, y=1655.851 pix
# Tilt: 0.820 deg  TiltPlanRot: -39.874 deg
# 
# Detector Pilatus 2M	 PixelSize= 1.720e-04, 1.720e-04 m
#    Detector has a mask: True 
#    Detector has a dark current: False 
#    detector has a flat field: False 
# 
# Wavelength: 2.0732883349524408e-11 m
# Mask applied: from detector
# Dark current applied: False
# Flat field applied: False
# Polarization factor: None
# Normalization factor: 1.0
# --> /gpfs/current/raw/FMue_3/FMue_3_20231024_175355_00016.dat
#        q_A^-1             I 
  3.483473e-02             nan
  8.795289e-02             nan
  1.410711e-01             nan
  1.941892e-01             nan
  2.473074e-01             nan
  3.004255e-01             nan
  3.535437e-01             nan
  4.066619e-01    9.493027e+03
  4.597800e-01    9.038582e+03
  5.128982e-01    8.129538e+03
  5.660163e-01    7.812654e+03
  6.191345e-01    7.826337e+03
  6.722527e-01    7.981964e+03
  7.253708e-01    8.352939e+03
  7.784890e-01    1.373385e+04
  8.316071e-01    2.715942e+04
  8.847253e-01    1.627475e+04
  9.378435e-01    9.336453e+03
  9.909616e-01    9.922494e+03
  1.044080e+00    1.009979e+04
  1.097198e+00    9.902266e+03
  1.150316e+00    1.028310e+04
  1.203434e+00    1.098830e+04
  1.256552e+00    1.200244e+04
  1.309671e+00    1.293024e+04
  1.362789e+00    1.379808e+04
  1.415907e+00    1.448743e+04
  1.469025e+00    1.472556e+04
  1.522143e+00    1.465539e+04
  1.575261e+00    1.419517e+04
  1.628380e+00    1.632580e+04
  1.681498e+00    1.791251e+04
  1.734616e+00    1.250385e+04
  1.787734e+00    1.054837e+04
  1.840852e+00    9.799623e+03
  1.893970e+00    9.259758e+03
  1.947089e+00    9.179099e+03
  2.000207e+00    8.806160e+03
  2.053325e+00    8.089223e+03
  2.106443e+00    7.855630e+03
  2.159561e+00    7.978368e+03
  2.212679e+00    8.156150e+03
  2.265797e+00    8.378352e+03
  2.318916e+00    8.241535e+03
  2.372034e+00    8.831183e+03
  2.425152e+00    1.346415e+04
  2.478270e+00    9.446694e+03
  2.531388e+00    8.102958e+03
  2.584506e+00    8.910487e+03
  2.637625e+00    8.764341e+03
  2.690743e+00    9.188560e+03
  2.743861e+00    1.257607e+04
  2.796979e+00    8.216744e+03
  2.850097e+00    5.855089e+03
  2.903215e+00    5.431128e+03
  2.956334e+00    5.253257e+03
  3.009452e+00    5.372608e+03
  3.062570e+00    6.203469e+03
  3.115688e+00    7.852978e+03
  3.168806e+00    8.854783e+03
  3.221924e+00    1.070944e+04
  3.275043e+00    9.887139e+03
  3.328161e+00    6.238397e+03
  3.381279e+00    5.971849e+03
  3.434397e+00    5.357368e+03
  3.487515e+00    5.058271e+03
  3.540633e+00    4.990362e+03
  3.593751e+00    5.122423e+03
  3.646870e+00    6.279210e+03
  3.699988e+00    5.540977e+03
  3.753106e+00    4.946376e+03
  3.806224e+00    5.136488e+03
  3.859342e+00    5.912881e+03
  3.912460e+00    5.586053e+03
  3.965579e+00    5.148366e+03
  4.018697e+00    5.462347e+03
  4.071815e+00    7.410770e+03
  4.124933e+00    8.087437e+03
  4.178051e+00    8.715562e+03
  4.231169e+00    6.867546e+03
  4.284288e+00    6.450137e+03
  4.337406e+00    7.273253e+03
  4.390524e+00    7.855150e+03
  4.443642e+00    1.025809e+04
  4.496760e+00    1.195911e+04
  4.549878e+00    9.604822e+03
  4.602997e+00    6.226590e+03
  4.656115e+00    5.213406e+03
  4.709233e+00    5.339129e+03
  4.762351e+00    6.043977e+03
  4.815469e+00    5.728720e+03
  4.868587e+00    5.349497e+03
  4.921705e+00    5.785175e+03
  4.974824e+00    5.685565e+03
  5.027942e+00    5.882692e+03
  5.081060e+00    5.713313e+03
  5.134178e+00    5.231841e+03
  5.187296e+00    5.133311e+03
  5.240414e+00    5.330391e+03
  5.293533e+00    4.946516e+03
  5.346651e+00    4.521820e+03
  5.399769e+00    4.316500e+03
  5.452887e+00    4.436270e+03
  5.506005e+00    4.615149e+03
  5.559123e+00    4.104713e+03
  5.612242e+00    3.943771e+03
  5.665360e+00    3.855466e+03
  5.718478e+00    3.560788e+03
  5.771596e+00    3.580732e+03
  5.824714e+00    3.706380e+03
  5.877832e+00    3.661996e+03
  5.930951e+00    3.734394e+03
  5.984069e+00    3.866866e+03
  6.037187e+00    3.783977e+03
  6.090305e+00    3.781102e+03
  6.143423e+00    3.733116e+03
  6.196541e+00    3.718198e+03
  6.249660e+00    4.226015e+03
  6.302778e+00    4.358096e+03
  6.355896e+00    3.991194e+03
  6.409014e+00    4.162150e+03
  6.462132e+00    4.048207e+03
  6.515250e+00    3.883404e+03
  6.568368e+00    3.696116e+03
  6.621487e+00    3.716887e+03
  6.674605e+00    3.666383e+03
  6.727723e+00    3.459890e+03
  6.780841e+00    3.397783e+03
  6.833959e+00    3.475235e+03
  6.887077e+00    3.394733e+03
  6.940196e+00    3.381237e+03
  6.993314e+00    3.457750e+03
  7.046432e+00    3.444173e+03
  7.099550e+00    3.716253e+03
  7.152668e+00    3.763109e+03
  7.205786e+00    3.456966e+03
  7.258905e+00    3.362758e+03
  7.312023e+00    3.230709e+03
  7.365141e+00    3.159135e+03
  7.418259e+00    3.123179e+03
  7.471377e+00    3.137475e+03
  7.524495e+00    3.244817e+03
  7.577614e+00    3.266087e+03
  7.630732e+00    3.323066e+03
  7.683850e+00    3.521357e+03
  7.736968e+00    3.695297e+03
  7.790086e+00    3.760877e+03
  7.843204e+00    3.662583e+03
  7.896322e+00    3.298054e+03
  7.949441e+00    3.076358e+03
  8.002559e+00    3.011459e+03
  8.055677e+00    2.996758e+03
  8.108795e+00    3.021521e+03
  8.161913e+00    3.161832e+03
  8.215031e+00    3.319586e+03
  8.268150e+00    3.153342e+03
  8.321268e+00    3.020130e+03
  8.374386e+00    3.057359e+03
  8.427504e+00    3.002440e+03
  8.480622e+00    2.963813e+03
  8.533740e+00    3.015058e+03
  8.586859e+00    3.059381e+03
  8.639977e+00    3.040719e+03
  8.693095e+00    2.981249e+03
  8.746213e+00    2.951096e+03
  8.799331e+00    2.940190e+03
  8.852449e+00    2.895937e+03
  8.905568e+00    2.873662e+03
  8.958686e+00    2.935197e+03
  9.011804e+00    2.943608e+03
  9.064922e+00    2.887822e+03
  9.118040e+00    2.761114e+03
  9.171158e+00    2.753609e+03
  9.224276e+00    2.778374e+03
  9.277395e+00    2.733003e+03
  9.330513e+00    2.694260e+03
  9.383631e+00    2.691412e+03
  9.436749e+00    2.670417e+03
  9.489867e+00    2.688361e+03
  9.542985e+00    2.701376e+03
  9.596104e+00    2.708224e+03
  9.649222e+00    2.660177e+03
  9.702340e+00    2.630238e+03
  9.755458e+00    2.642252e+03
  9.808576e+00    2.601078e+03
  9.861694e+00    2.591843e+03
  9.914813e+00    2.600027e+03
  9.967931e+00    2.608360e+03
  1.002105e+01    2.593389e+03
  1.007417e+01    2.550140e+03
  1.012729e+01    2.491127e+03
  1.018040e+01    2.484745e+03
  1.023352e+01    2.482785e+03
  1.028664e+01    2.472827e+03
  1.033976e+01    2.490579e+03
  1.039288e+01    2.505381e+03
  1.044599e+01    2.474982e+03
  1.049911e+01    2.483254e+03
  1.055223e+01    2.478304e+03
  1.060535e+01    2.454721e+03
  1.065847e+01    2.440052e+03
  1.071158e+01    2.429047e+03
  1.076470e+01    2.418086e+03
  1.081782e+01    2.448660e+03
  1.087094e+01    2.467083e+03
  1.092406e+01    2.445538e+03
  1.097718e+01    2.431226e+03
  1.103029e+01    2.398710e+03
  1.108341e+01    2.379499e+03
  1.113653e+01    2.372977e+03
  1.118965e+01    2.353962e+03
  1.124277e+01    2.346077e+03
  1.129588e+01    2.341252e+03
  1.134900e+01    2.340885e+03
  1.140212e+01    2.319164e+03
  1.145524e+01    2.293084e+03
  1.150836e+01    2.290378e+03
  1.156148e+01    2.296807e+03
  1.161459e+01    2.309980e+03
  1.166771e+01    2.294942e+03
  1.172083e+01    2.312244e+03
  1.177395e+01    2.301772e+03
  1.182707e+01    2.302377e+03
  1.188018e+01    2.319908e+03
  1.193330e+01    2.312671e+03
  1.198642e+01    2.294562e+03
  1.203954e+01    2.267569e+03
  1.209266e+01    2.253663e+03
  1.214578e+01    2.246080e+03
  1.219889e+01    2.246111e+03
  1.225201e+01    2.254221e+03
  1.230513e+01    2.271623e+03
  1.235825e+01    2.274010e+03
  1.241137e+01    2.252215e+03
  1.246448e+01    2.250162e+03
  1.251760e+01    2.256490e+03
  1.257072e+01    2.253340e+03
  1.262384e+01    2.249744e+03
  1.267696e+01    2.237954e+03
  1.273008e+01    2.225534e+03
  1.278319e+01    2.207573e+03
  1.283631e+01    2.188108e+03
  1.288943e+01    2.180170e+03
  1.294255e+01    2.168608e+03
  1.299567e+01    2.164191e+03
  1.304878e+01    2.153451e+03
  1.310190e+01    2.149271e+03
  1.315502e+01    2.153335e+03
  1.320814e+01    2.126268e+03
  1.326126e+01    2.091895e+03
  1.331437e+01    2.074663e+03
  1.336749e+01    2.060862e+03
  1.342061e+01    2.047293e+03
  1.347373e+01    2.072484e+03
  1.352685e+01    2.075424e+03
  1.357997e+01    2.068434e+03
  1.363308e+01    2.058681e+03
  1.368620e+01    2.049744e+03
  1.373932e+01    2.030861e+03
  1.379244e+01    2.020952e+03
  1.384556e+01    2.014764e+03
  1.389867e+01    2.012334e+03
  1.395179e+01    2.008394e+03
  1.400491e+01    2.006302e+03
  1.405803e+01    1.999349e+03
  1.411115e+01    1.991184e+03
  1.416427e+01    1.986772e+03
  1.421738e+01    1.987525e+03
  1.427050e+01    1.978085e+03
  1.432362e+01    1.979909e+03
  1.437674e+01    1.983273e+03
  1.442986e+01    1.972935e+03
  1.448297e+01    1.961394e+03
  1.453609e+01    1.954127e+03
  1.458921e+01    1.943343e+03
  1.464233e+01    1.938573e+03
  1.469545e+01    1.932851e+03
  1.474857e+01    1.918931e+03
  1.480168e+01    1.935917e+03
  1.485480e+01    1.931446e+03
  1.490792e+01    1.924116e+03
  1.496104e+01    1.913386e+03
  1.501416e+01    1.909898e+03
  1.506727e+01    1.903372e+03
  1.512039e+01    1.900204e+03
  1.517351e+01    1.912099e+03
  1.522663e+01    1.924623e+03
  1.527975e+01    1.921056e+03
  1.533286e+01    1.905900e+03
  1.538598e+01    1.894980e+03
  1.543910e+01    1.885008e+03
  1.549222e+01    1.881654e+03
  1.554534e+01    1.885292e+03
  1.559846e+01    1.882898e+03
  1.565157e+01    1.876967e+03
  1.570469e+01    1.868375e+03
  1.575781e+01    1.861455e+03
  1.581093e+01    1.858141e+03
  1.586405e+01    1.855856e+03
  1.591716e+01    1.850784e+03
  1.597028e+01    1.842286e+03
  1.602340e+01    1.827470e+03
  1.607652e+01    1.814447e+03
  1.612964e+01    1.791736e+03
  1.618276e+01    1.780086e+03
  1.623587e+01    1.782966e+03
  1.628899e+01    1.800227e+03
  1.634211e+01    1.798272e+03
  1.639523e+01    1.795348e+03
  1.644835e+01    1.798169e+03
  1.650146e+01    1.791607e+03
  1.655458e+01    1.792322e+03
  1.660770e+01    1.788132e+03
  1.666082e+01    1.781985e+03
  1.671394e+01    1.779023e+03
  1.676706e+01    1.774421e+03
  1.682017e+01    1.787624e+03
  1.687329e+01    1.776518e+03
  1.692641e+01    1.770323e+03
  1.697953e+01    1.766081e+03
  1.703265e+01    1.762217e+03
  1.708576e+01    1.760995e+03
  1.713888e+01    1.751068e+03
  1.719200e+01    1.750811e+03
  1.724512e+01    1.741427e+03
  1.729824e+01    1.741927e+03
  1.735136e+01    1.735103e+03
  1.740447e+01    1.711297e+03
  1.745759e+01    1.720003e+03
  1.751071e+01    1.720180e+03
  1.756383e+01    1.729420e+03
  1.761695e+01    1.713283e+03
  1.767006e+01    1.710267e+03
  1.772318e+01    1.700743e+03
  1.777630e+01    1.700319e+03
  1.782942e+01    1.692902e+03
  1.788254e+01    1.688834e+03
  1.793565e+01    1.687782e+03
  1.798877e+01    1.683725e+03
  1.804189e+01    1.675626e+03
  1.809501e+01    1.671144e+03
  1.814813e+01    1.669653e+03
  1.820125e+01    1.664493e+03
  1.825436e+01    1.671212e+03
  1.830748e+01    1.664284e+03
  1.836060e+01    1.659197e+03
  1.841372e+01    1.657140e+03
  1.846684e+01    1.652524e+03
  1.851995e+01    1.631659e+03
  1.857307e+01    1.617463e+03
  1.862619e+01    1.606349e+03
  1.867931e+01    1.602416e+03
  1.873243e+01    1.624326e+03
  1.878555e+01    1.626229e+03
  1.883866e+01    1.625523e+03
  1.889178e+01    1.622897e+03
  1.894490e+01    1.635510e+03
  1.899802e+01    1.624906e+03
  1.905114e+01    1.619233e+03
  1.910425e+01    1.613693e+03
  1.915737e+01    1.608908e+03
  1.921049e+01    1.605824e+03
  1.926361e+01    1.602064e+03
  1.931673e+01    1.598208e+03
  1.936985e+01    1.596810e+03
  1.942296e+01    1.593023e+03
  1.947608e+01    1.593791e+03
  1.952920e+01    1.588681e+03
  1.958232e+01    1.587550e+03
  1.963544e+01    1.594587e+03
  1.968855e+01    1.578472e+03
  1.974167e+01    1.567166e+03
  1.979479e+01    1.571765e+03
  1.984791e+01    1.571040e+03
  1.990103e+01    1.567960e+03
  1.995414e+01    1.566383e+03
  2.000726e+01    1.563350e+03
  2.006038e+01    1.559356e+03
  2.011350e+01    1.554524e+03
  2.016662e+01    1.550355e+03
  2.021974e+01    1.552043e+03
  2.027285e+01    1.559246e+03
  2.032597e+01    1.543384e+03
  2.037909e+01    1.538298e+03
  2.043221e+01    1.533961e+03
  2.048533e+01    1.533065e+03
  2.053844e+01    1.530913e+03
  2.059156e+01    1.526601e+03
  2.064468e+01    1.523397e+03
  2.069780e+01    1.502708e+03
  2.075092e+01    1.478951e+03
  2.080404e+01    1.462062e+03
  2.085715e+01    1.482945e+03
  2.091027e+01    1.510601e+03
  2.096339e+01    1.518155e+03
  2.101651e+01    1.524078e+03
  2.106963e+01    1.527781e+03
  2.112274e+01    1.530040e+03
  2.117586e+01    1.532331e+03
  2.122898e+01    1.535325e+03
  2.128210e+01    1.533702e+03
  2.133522e+01    1.533180e+03
  2.138834e+01    1.531599e+03
  2.144145e+01    1.530189e+03
  2.149457e+01    1.531262e+03
  2.154769e+01    1.529498e+03
  2.160081e+01    1.530596e+03
  2.165393e+01    1.531113e+03
  2.170704e+01    1.531045e+03
  2.176016e+01    1.521002e+03
  2.181328e+01    1.527723e+03
  2.186640e+01    1.528754e+03
  2.191952e+01    1.528402e+03
  2.197263e+01    1.525143e+03
  2.202575e+01    1.522346e+03
  2.207887e+01    1.523120e+03
  2.213199e+01    1.520902e+03
  2.218511e+01    1.519636e+03
  2.223823e+01    1.517388e+03
  2.229134e+01    1.516715e+03
  2.234446e+01    1.516033e+03
  2.239758e+01    1.515073e+03
  2.245070e+01    1.513305e+03
  2.250382e+01    1.514363e+03
  2.255693e+01    1.510902e+03
  2.261005e+01    1.492486e+03
  2.266317e+01    1.478977e+03
  2.271629e+01    1.470328e+03
  2.276941e+01    1.459690e+03
  2.282253e+01    1.452177e+03
  2.287564e+01    1.447987e+03
  2.292876e+01    1.443510e+03
  2.298188e+01    1.439083e+03
  2.303500e+01    1.439057e+03
  2.308812e+01    1.436447e+03
  2.314123e+01    1.433199e+03
  2.319435e+01    1.429084e+03
  2.324747e+01    1.420973e+03
  2.330059e+01    1.418448e+03
  2.335371e+01    1.413947e+03
  2.340683e+01    1.411555e+03
  2.345994e+01    1.407382e+03
  2.351306e+01    1.405201e+03
  2.356618e+01    1.401282e+03
  2.361930e+01    1.393172e+03
  2.367242e+01    1.389460e+03
  2.372553e+01    1.383337e+03
  2.377865e+01    1.378255e+03
  2.383177e+01    1.373161e+03
  2.388489e+01    1.368285e+03
  2.393801e+01    1.363632e+03
  2.399113e+01    1.364096e+03
  2.404424e+01    1.362200e+03
  2.409736e+01    1.358676e+03
  2.415048e+01    1.355584e+03
  2.420360e+01    1.348321e+03
  2.425672e+01    1.347568e+03
  2.430983e+01    1.342120e+03
  2.436295e+01    1.342649e+03
  2.441607e+01    1.339023e+03
  2.446919e+01    1.338695e+03
  2.452231e+01    1.335887e+03
  2.457542e+01    1.333030e+03
  2.462854e+01    1.332575e+03
  2.468166e+01    1.331411e+03
  2.473478e+01    1.326240e+03
  2.478790e+01    1.318021e+03
  2.484102e+01    1.316292e+03
  2.489413e+01    1.310724e+03
  2.494725e+01    1.306572e+03
  2.500037e+01    1.303742e+03
  2.505349e+01    1.296174e+03
  2.510661e+01    1.291542e+03
  2.515972e+01    1.288306e+03
  2.521284e+01    1.287755e+03
  2.526596e+01    1.288705e+03
  2.531908e+01    1.282742e+03
  2.537220e+01    1.280116e+03
  2.542532e+01    1.273473e+03
  2.547843e+01    1.272348e+03
  2.553155e+01    1.266986e+03
  2.558467e+01    1.261788e+03
  2.563779e+01    1.253475e+03
  2.569091e+01    1.247494e+03
  2.574402e+01    1.236992e+03
  2.579714e+01    1.230004e+03
  2.585026e+01    1.222657e+03
  2.590338e+01    1.217100e+03
  2.595650e+01    1.214849e+03
  2.600962e+01    1.211301e+03
  2.606273e+01    1.214456e+03
  2.611585e+01    1.211888e+03
  2.616897e+01    1.211490e+03
  2.622209e+01    1.213365e+03
  2.627521e+01    1.203968e+03
  2.632832e+01    1.193989e+03
  2.638144e+01    1.192693e+03
  2.643456e+01    1.191794e+03
  2.648768e+01    1.159622e+03
  2.654080e+01    1.151105e+03
