# == pyFAI calibration ==
# Distance Sample to Detector: 0.2946421923531691 m
# PONI: 2.875e-01, 2.439e-01 m
# Rotations: -0.010990 -0.009181 0.000003 rad
# 
# == Fit2d calibration ==
# Distance Sample-beamCenter: 294.672 mm
# Center: x=1436.809, y=1655.851 pix
# Tilt: 0.820 deg  TiltPlanRot: -39.874 deg
# 
# Detector Pilatus 2M	 PixelSize= 1.720e-04, 1.720e-04 m
#    Detector has a mask: True 
#    Detector has a dark current: False 
#    detector has a flat field: False 
# 
# Wavelength: 2.0732883349524408e-11 m
# Mask applied: from detector
# Dark current applied: False
# Flat field applied: False
# Polarization factor: None
# Normalization factor: 1.0
# --> /gpfs/current/raw/FMue_3/FMue_3_20231024_175355_00066.dat
#        q_A^-1             I 
  3.483473e-02             nan
  8.795289e-02             nan
  1.410711e-01             nan
  1.941892e-01             nan
  2.473074e-01             nan
  3.004255e-01             nan
  3.535437e-01             nan
  4.066619e-01    1.276595e+04
  4.597800e-01    1.179407e+04
  5.128982e-01    1.022551e+04
  5.660163e-01    9.433186e+03
  6.191345e-01    9.150992e+03
  6.722527e-01    9.090466e+03
  7.253708e-01    9.241896e+03
  7.784890e-01    9.582931e+03
  8.316071e-01    1.041284e+04
  8.847253e-01    1.183671e+04
  9.378435e-01    1.335099e+04
  9.909616e-01    1.326296e+04
  1.044080e+00    1.169176e+04
  1.097198e+00    1.057966e+04
  1.150316e+00    1.066631e+04
  1.203434e+00    1.129433e+04
  1.256552e+00    1.223309e+04
  1.309671e+00    1.288858e+04
  1.362789e+00    1.381062e+04
  1.415907e+00    1.448437e+04
  1.469025e+00    1.472792e+04
  1.522143e+00    1.465566e+04
  1.575261e+00    1.408845e+04
  1.628380e+00    1.339824e+04
  1.681498e+00    1.251658e+04
  1.734616e+00    1.163162e+04
  1.787734e+00    1.093105e+04
  1.840852e+00    1.036895e+04
  1.893970e+00    9.848031e+03
  1.947089e+00    9.545727e+03
  2.000207e+00    8.999324e+03
  2.053325e+00    8.243320e+03
  2.106443e+00    8.029476e+03
  2.159561e+00    8.193081e+03
  2.212679e+00    8.403765e+03
  2.265797e+00    8.710292e+03
  2.318916e+00    8.782853e+03
  2.372034e+00    8.960643e+03
  2.425152e+00    9.045829e+03
  2.478270e+00    8.999500e+03
  2.531388e+00    9.658907e+03
  2.584506e+00    1.010242e+04
  2.637625e+00    9.762855e+03
  2.690743e+00    9.115611e+03
  2.743861e+00    8.512447e+03
  2.796979e+00    7.370848e+03
  2.850097e+00    6.413044e+03
  2.903215e+00    6.057351e+03
  2.956334e+00    5.919682e+03
  3.009452e+00    5.986920e+03
  3.062570e+00    6.602585e+03
  3.115688e+00    8.464781e+03
  3.168806e+00    9.145025e+03
  3.221924e+00    7.911488e+03
  3.275043e+00    6.539515e+03
  3.328161e+00    5.934115e+03
  3.381279e+00    6.052336e+03
  3.434397e+00    5.626619e+03
  3.487515e+00    5.374801e+03
  3.540633e+00    5.302305e+03
  3.593751e+00    5.142191e+03
  3.646870e+00    5.129302e+03
  3.699988e+00    5.178881e+03
  3.753106e+00    5.307091e+03
  3.806224e+00    5.350024e+03
  3.859342e+00    5.343723e+03
  3.912460e+00    5.408425e+03
  3.965579e+00    5.591216e+03
  4.018697e+00    6.069675e+03
  4.071815e+00    6.997510e+03
  4.124933e+00    7.737447e+03
  4.178051e+00    7.460268e+03
  4.231169e+00    6.912509e+03
  4.284288e+00    6.759864e+03
  4.337406e+00    7.066277e+03
  4.390524e+00    7.710335e+03
  4.443642e+00    9.979558e+03
  4.496760e+00    1.213388e+04
  4.549878e+00    9.269529e+03
  4.602997e+00    6.247889e+03
  4.656115e+00    5.558111e+03
  4.709233e+00    5.524416e+03
  4.762351e+00    5.752704e+03
  4.815469e+00    5.687044e+03
  4.868587e+00    5.487173e+03
  4.921705e+00    5.413174e+03
  4.974824e+00    5.409617e+03
  5.027942e+00    5.335787e+03
  5.081060e+00    5.289441e+03
  5.134178e+00    5.185188e+03
  5.187296e+00    5.042627e+03
  5.240414e+00    4.859441e+03
  5.293533e+00    4.714299e+03
  5.346651e+00    4.562564e+03
  5.399769e+00    4.421269e+03
  5.452887e+00    4.429734e+03
  5.506005e+00    4.469186e+03
  5.559123e+00    4.125614e+03
  5.612242e+00    3.841859e+03
  5.665360e+00    3.742443e+03
  5.718478e+00    3.624966e+03
  5.771596e+00    3.533966e+03
  5.824714e+00    3.512470e+03
  5.877832e+00    3.547262e+03
  5.930951e+00    3.637149e+03
  5.984069e+00    3.752657e+03
  6.037187e+00    3.824837e+03
  6.090305e+00    3.822021e+03
  6.143423e+00    3.764171e+03
  6.196541e+00    3.856549e+03
  6.249660e+00    4.113348e+03
  6.302778e+00    4.207369e+03
  6.355896e+00    3.982634e+03
  6.409014e+00    3.821210e+03
  6.462132e+00    3.715888e+03
  6.515250e+00    3.601627e+03
  6.568368e+00    3.554754e+03
  6.621487e+00    3.506866e+03
  6.674605e+00    3.465523e+03
  6.727723e+00    3.486278e+03
  6.780841e+00    3.467540e+03
  6.833959e+00    3.420180e+03
  6.887077e+00    3.375424e+03
  6.940196e+00    3.330170e+03
  6.993314e+00    3.376554e+03
  7.046432e+00    3.448059e+03
  7.099550e+00    3.424423e+03
  7.152668e+00    3.360282e+03
  7.205786e+00    3.290414e+03
  7.258905e+00    3.208400e+03
  7.312023e+00    3.165344e+03
  7.365141e+00    3.162300e+03
  7.418259e+00    3.176734e+03
  7.471377e+00    3.197179e+03
  7.524495e+00    3.227750e+03
  7.577614e+00    3.251619e+03
  7.630732e+00    3.272022e+03
  7.683850e+00    3.399310e+03
  7.736968e+00    3.627008e+03
  7.790086e+00    3.633120e+03
  7.843204e+00    3.424086e+03
  7.896322e+00    3.198348e+03
  7.949441e+00    3.070132e+03
  8.002559e+00    3.025054e+03
  8.055677e+00    3.026536e+03
  8.108795e+00    3.046403e+03
  8.161913e+00    3.087006e+03
  8.215031e+00    3.087557e+03
  8.268150e+00    3.045402e+03
  8.321268e+00    3.000666e+03
  8.374386e+00    2.978561e+03
  8.427504e+00    2.964082e+03
  8.480622e+00    2.943224e+03
  8.533740e+00    2.885105e+03
  8.586859e+00    2.910521e+03
  8.639977e+00    2.903703e+03
  8.693095e+00    2.884024e+03
  8.746213e+00    2.867198e+03
  8.799331e+00    2.839132e+03
  8.852449e+00    2.826014e+03
  8.905568e+00    2.845009e+03
  8.958686e+00    2.861046e+03
  9.011804e+00    2.868644e+03
  9.064922e+00    2.794375e+03
  9.118040e+00    2.708729e+03
  9.171158e+00    2.670129e+03
  9.224276e+00    2.655230e+03
  9.277395e+00    2.632728e+03
  9.330513e+00    2.624895e+03
  9.383631e+00    2.621917e+03
  9.436749e+00    2.621425e+03
  9.489867e+00    2.627063e+03
  9.542985e+00    2.619959e+03
  9.596104e+00    2.587095e+03
  9.649222e+00    2.566367e+03
  9.702340e+00    2.551048e+03
  9.755458e+00    2.546601e+03
  9.808576e+00    2.539840e+03
  9.861694e+00    2.545626e+03
  9.914813e+00    2.554785e+03
  9.967931e+00    2.549970e+03
  1.002105e+01    2.507333e+03
  1.007417e+01    2.454231e+03
  1.012729e+01    2.424709e+03
  1.018040e+01    2.427078e+03
  1.023352e+01    2.422096e+03
  1.028664e+01    2.405098e+03
  1.033976e+01    2.397118e+03
  1.039288e+01    2.418997e+03
  1.044599e+01    2.407394e+03
  1.049911e+01    2.403363e+03
  1.055223e+01    2.382294e+03
  1.060535e+01    2.376076e+03
  1.065847e+01    2.371507e+03
  1.071158e+01    2.365460e+03
  1.076470e+01    2.357336e+03
  1.081782e+01    2.356303e+03
  1.087094e+01    2.344732e+03
  1.092406e+01    2.346451e+03
  1.097718e+01    2.341166e+03
  1.103029e+01    2.333668e+03
  1.108341e+01    2.321060e+03
  1.113653e+01    2.307299e+03
  1.118965e+01    2.295012e+03
  1.124277e+01    2.283919e+03
  1.129588e+01    2.278975e+03
  1.134900e+01    2.266888e+03
  1.140212e+01    2.259779e+03
  1.145524e+01    2.247417e+03
  1.150836e+01    2.247096e+03
  1.156148e+01    2.238398e+03
  1.161459e+01    2.240029e+03
  1.166771e+01    2.233794e+03
  1.172083e+01    2.254209e+03
  1.177395e+01    2.243088e+03
  1.182707e+01    2.242543e+03
  1.188018e+01    2.248743e+03
  1.193330e+01    2.235876e+03
  1.198642e+01    2.219553e+03
  1.203954e+01    2.199893e+03
  1.209266e+01    2.192469e+03
  1.214578e+01    2.182044e+03
  1.219889e+01    2.185853e+03
  1.225201e+01    2.184282e+03
  1.230513e+01    2.179940e+03
  1.235825e+01    2.184928e+03
  1.241137e+01    2.174424e+03
  1.246448e+01    2.174863e+03
  1.251760e+01    2.175303e+03
  1.257072e+01    2.170815e+03
  1.262384e+01    2.175061e+03
  1.267696e+01    2.159319e+03
  1.273008e+01    2.141258e+03
  1.278319e+01    2.133759e+03
  1.283631e+01    2.120605e+03
  1.288943e+01    2.115870e+03
  1.294255e+01    2.101995e+03
  1.299567e+01    2.093886e+03
  1.304878e+01    2.086750e+03
  1.310190e+01    2.082314e+03
  1.315502e+01    2.075460e+03
  1.320814e+01    2.049885e+03
  1.326126e+01    2.019874e+03
  1.331437e+01    2.006807e+03
  1.336749e+01    1.994802e+03
  1.342061e+01    1.983063e+03
  1.347373e+01    2.007947e+03
  1.352685e+01    2.013735e+03
  1.357997e+01    2.003626e+03
  1.363308e+01    1.990739e+03
  1.368620e+01    1.983615e+03
  1.373932e+01    1.973325e+03
  1.379244e+01    1.966823e+03
  1.384556e+01    1.962331e+03
  1.389867e+01    1.954953e+03
  1.395179e+01    1.947012e+03
  1.400491e+01    1.944444e+03
  1.405803e+01    1.941447e+03
  1.411115e+01    1.934960e+03
  1.416427e+01    1.925095e+03
  1.421738e+01    1.921918e+03
  1.427050e+01    1.914199e+03
  1.432362e+01    1.917675e+03
  1.437674e+01    1.914930e+03
  1.442986e+01    1.903099e+03
  1.448297e+01    1.895706e+03
  1.453609e+01    1.890866e+03
  1.458921e+01    1.880631e+03
  1.464233e+01    1.876645e+03
  1.469545e+01    1.870290e+03
  1.474857e+01    1.852300e+03
  1.480168e+01    1.864113e+03
  1.485480e+01    1.860746e+03
  1.490792e+01    1.858363e+03
  1.496104e+01    1.850512e+03
  1.501416e+01    1.846413e+03
  1.506727e+01    1.843115e+03
  1.512039e+01    1.838211e+03
  1.517351e+01    1.850766e+03
  1.522663e+01    1.864266e+03
  1.527975e+01    1.859388e+03
  1.533286e+01    1.842699e+03
  1.538598e+01    1.832075e+03
  1.543910e+01    1.823271e+03
  1.549222e+01    1.820367e+03
  1.554534e+01    1.820658e+03
  1.559846e+01    1.818203e+03
  1.565157e+01    1.811917e+03
  1.570469e+01    1.805330e+03
  1.575781e+01    1.800982e+03
  1.581093e+01    1.797033e+03
  1.586405e+01    1.796295e+03
  1.591716e+01    1.790843e+03
  1.597028e+01    1.782817e+03
  1.602340e+01    1.769722e+03
  1.607652e+01    1.759148e+03
  1.612964e+01    1.735476e+03
  1.618276e+01    1.724587e+03
  1.623587e+01    1.726748e+03
  1.628899e+01    1.743018e+03
  1.634211e+01    1.742287e+03
  1.639523e+01    1.736228e+03
  1.644835e+01    1.737440e+03
  1.650146e+01    1.730389e+03
  1.655458e+01    1.728308e+03
  1.660770e+01    1.723289e+03
  1.666082e+01    1.719438e+03
  1.671394e+01    1.717998e+03
  1.676706e+01    1.714758e+03
  1.682017e+01    1.727043e+03
  1.687329e+01    1.716072e+03
  1.692641e+01    1.710175e+03
  1.697953e+01    1.705401e+03
  1.703265e+01    1.700686e+03
  1.708576e+01    1.697342e+03
  1.713888e+01    1.691649e+03
  1.719200e+01    1.689968e+03
  1.724512e+01    1.682173e+03
  1.729824e+01    1.682791e+03
  1.735136e+01    1.675258e+03
  1.740447e+01    1.653877e+03
  1.745759e+01    1.662815e+03
  1.751071e+01    1.663943e+03
  1.756383e+01    1.672627e+03
  1.761695e+01    1.656268e+03
  1.767006e+01    1.653027e+03
  1.772318e+01    1.643661e+03
  1.777630e+01    1.643013e+03
  1.782942e+01    1.635489e+03
  1.788254e+01    1.630467e+03
  1.793565e+01    1.627642e+03
  1.798877e+01    1.625086e+03
  1.804189e+01    1.618186e+03
  1.809501e+01    1.613289e+03
  1.814813e+01    1.611220e+03
  1.820125e+01    1.606685e+03
  1.825436e+01    1.613148e+03
  1.830748e+01    1.605656e+03
  1.836060e+01    1.601357e+03
  1.841372e+01    1.599189e+03
  1.846684e+01    1.593768e+03
  1.851995e+01    1.574400e+03
  1.857307e+01    1.561492e+03
  1.862619e+01    1.549504e+03
  1.867931e+01    1.547499e+03
  1.873243e+01    1.566597e+03
  1.878555e+01    1.569023e+03
  1.883866e+01    1.568116e+03
  1.889178e+01    1.566066e+03
  1.894490e+01    1.577881e+03
  1.899802e+01    1.569476e+03
  1.905114e+01    1.563970e+03
  1.910425e+01    1.558779e+03
  1.915737e+01    1.554108e+03
  1.921049e+01    1.549742e+03
  1.926361e+01    1.546622e+03
  1.931673e+01    1.543753e+03
  1.936985e+01    1.539962e+03
  1.942296e+01    1.538304e+03
  1.947608e+01    1.537589e+03
  1.952920e+01    1.534300e+03
  1.958232e+01    1.535471e+03
  1.963544e+01    1.541078e+03
  1.968855e+01    1.526495e+03
  1.974167e+01    1.514317e+03
  1.979479e+01    1.518641e+03
  1.984791e+01    1.517581e+03
  1.990103e+01    1.515946e+03
  1.995414e+01    1.513349e+03
  2.000726e+01    1.510317e+03
  2.006038e+01    1.506515e+03
  2.011350e+01    1.503385e+03
  2.016662e+01    1.496287e+03
  2.021974e+01    1.498793e+03
  2.027285e+01    1.507239e+03
  2.032597e+01    1.491285e+03
  2.037909e+01    1.486604e+03
  2.043221e+01    1.482194e+03
  2.048533e+01    1.478921e+03
  2.053844e+01    1.478369e+03
  2.059156e+01    1.473347e+03
  2.064468e+01    1.470121e+03
  2.069780e+01    1.452215e+03
  2.075092e+01    1.426482e+03
  2.080404e+01    1.412112e+03
  2.085715e+01    1.431286e+03
  2.091027e+01    1.458613e+03
  2.096339e+01    1.465140e+03
  2.101651e+01    1.470370e+03
  2.106963e+01    1.474114e+03
  2.112274e+01    1.477662e+03
  2.117586e+01    1.478813e+03
  2.122898e+01    1.483377e+03
  2.128210e+01    1.480215e+03
  2.133522e+01    1.479680e+03
  2.138834e+01    1.478902e+03
  2.144145e+01    1.478551e+03
  2.149457e+01    1.479494e+03
  2.154769e+01    1.477354e+03
  2.160081e+01    1.476089e+03
  2.165393e+01    1.477842e+03
  2.170704e+01    1.477865e+03
  2.176016e+01    1.467151e+03
  2.181328e+01    1.475671e+03
  2.186640e+01    1.477740e+03
  2.191952e+01    1.476260e+03
  2.197263e+01    1.472579e+03
  2.202575e+01    1.471484e+03
  2.207887e+01    1.470957e+03
  2.213199e+01    1.469636e+03
  2.218511e+01    1.467392e+03
  2.223823e+01    1.467134e+03
  2.229134e+01    1.465260e+03
  2.234446e+01    1.463915e+03
  2.239758e+01    1.463622e+03
  2.245070e+01    1.462188e+03
  2.250382e+01    1.462567e+03
  2.255693e+01    1.458975e+03
  2.261005e+01    1.440929e+03
  2.266317e+01    1.427657e+03
  2.271629e+01    1.419802e+03
  2.276941e+01    1.409107e+03
  2.282253e+01    1.402285e+03
  2.287564e+01    1.399161e+03
  2.292876e+01    1.393070e+03
  2.298188e+01    1.389733e+03
  2.303500e+01    1.387225e+03
  2.308812e+01    1.387134e+03
  2.314123e+01    1.382428e+03
  2.319435e+01    1.380070e+03
  2.324747e+01    1.370967e+03
  2.330059e+01    1.369310e+03
  2.335371e+01    1.367374e+03
  2.340683e+01    1.361709e+03
  2.345994e+01    1.359027e+03
  2.351306e+01    1.355588e+03
  2.356618e+01    1.352005e+03
  2.361930e+01    1.345651e+03
  2.367242e+01    1.342770e+03
  2.372553e+01    1.336669e+03
  2.377865e+01    1.329812e+03
  2.383177e+01    1.326194e+03
  2.388489e+01    1.321348e+03
  2.393801e+01    1.316002e+03
  2.399113e+01    1.315008e+03
  2.404424e+01    1.312407e+03
  2.409736e+01    1.312956e+03
  2.415048e+01    1.308437e+03
  2.420360e+01    1.304712e+03
  2.425672e+01    1.300088e+03
  2.430983e+01    1.297712e+03
  2.436295e+01    1.294632e+03
  2.441607e+01    1.293559e+03
  2.446919e+01    1.291311e+03
  2.452231e+01    1.292322e+03
  2.457542e+01    1.288255e+03
  2.462854e+01    1.285705e+03
  2.468166e+01    1.284497e+03
  2.473478e+01    1.278645e+03
  2.478790e+01    1.273025e+03
  2.484102e+01    1.268555e+03
  2.489413e+01    1.267320e+03
  2.494725e+01    1.262348e+03
  2.500037e+01    1.257095e+03
  2.505349e+01    1.250256e+03
  2.510661e+01    1.245515e+03
  2.515972e+01    1.244018e+03
  2.521284e+01    1.244120e+03
  2.526596e+01    1.241575e+03
  2.531908e+01    1.236100e+03
  2.537220e+01    1.234320e+03
  2.542532e+01    1.231224e+03
  2.547843e+01    1.228110e+03
  2.553155e+01    1.224539e+03
  2.558467e+01    1.217198e+03
  2.563779e+01    1.207486e+03
  2.569091e+01    1.203563e+03
  2.574402e+01    1.196564e+03
  2.579714e+01    1.189699e+03
  2.585026e+01    1.182338e+03
  2.590338e+01    1.174615e+03
  2.595650e+01    1.174830e+03
  2.600962e+01    1.171511e+03
  2.606273e+01    1.168714e+03
  2.611585e+01    1.173318e+03
  2.616897e+01    1.170877e+03
  2.622209e+01    1.164500e+03
  2.627521e+01    1.164682e+03
  2.632832e+01    1.154411e+03
  2.638144e+01    1.150283e+03
  2.643456e+01    1.155621e+03
  2.648768e+01    1.134986e+03
  2.654080e+01    1.124575e+03
