# == pyFAI calibration ==
# Distance Sample to Detector: 0.2946421923531691 m
# PONI: 2.875e-01, 2.439e-01 m
# Rotations: -0.010990 -0.009181 0.000003 rad
# 
# == Fit2d calibration ==
# Distance Sample-beamCenter: 294.672 mm
# Center: x=1436.809, y=1655.851 pix
# Tilt: 0.820 deg  TiltPlanRot: -39.874 deg
# 
# Detector Pilatus 2M	 PixelSize= 1.720e-04, 1.720e-04 m
#    Detector has a mask: True 
#    Detector has a dark current: False 
#    detector has a flat field: False 
# 
# Wavelength: 2.0732883349524408e-11 m
# Mask applied: from detector
# Dark current applied: False
# Flat field applied: False
# Polarization factor: None
# Normalization factor: 1.0
# --> /gpfs/current/raw/FMue_3/FMue_3_20231024_175355_00094.dat
#        q_A^-1             I 
  3.483473e-02             nan
  8.795289e-02             nan
  1.410711e-01             nan
  1.941892e-01             nan
  2.473074e-01             nan
  3.004255e-01             nan
  3.535437e-01             nan
  4.066619e-01    1.367646e+04
  4.597800e-01    1.244245e+04
  5.128982e-01    1.045951e+04
  5.660163e-01    9.360716e+03
  6.191345e-01    8.852018e+03
  6.722527e-01    8.600068e+03
  7.253708e-01    8.539961e+03
  7.784890e-01    8.513979e+03
  8.316071e-01    8.663346e+03
  8.847253e-01    8.827462e+03
  9.378435e-01    9.265939e+03
  9.909616e-01    9.990967e+03
  1.044080e+00    1.013849e+04
  1.097198e+00    9.920528e+03
  1.150316e+00    1.035755e+04
  1.203434e+00    1.128521e+04
  1.256552e+00    1.222167e+04
  1.309671e+00    1.296974e+04
  1.362789e+00    1.400176e+04
  1.415907e+00    1.456330e+04
  1.469025e+00    1.466939e+04
  1.522143e+00    1.449036e+04
  1.575261e+00    1.387003e+04
  1.628380e+00    1.311240e+04
  1.681498e+00    1.217463e+04
  1.734616e+00    1.121407e+04
  1.787734e+00    1.038873e+04
  1.840852e+00    9.699396e+03
  1.893970e+00    9.213495e+03
  1.947089e+00    9.143260e+03
  2.000207e+00    8.874383e+03
  2.053325e+00    8.347627e+03
  2.106443e+00    8.387037e+03
  2.159561e+00    8.788526e+03
  2.212679e+00    9.046367e+03
  2.265797e+00    9.164062e+03
  2.318916e+00    8.793277e+03
  2.372034e+00    8.136541e+03
  2.425152e+00    8.335856e+03
  2.478270e+00    9.233100e+03
  2.531388e+00    1.086262e+04
  2.584506e+00    1.178307e+04
  2.637625e+00    1.083227e+04
  2.690743e+00    9.376417e+03
  2.743861e+00    8.239836e+03
  2.796979e+00    6.798347e+03
  2.850097e+00    5.774909e+03
  2.903215e+00    5.430541e+03
  2.956334e+00    5.362797e+03
  3.009452e+00    5.649384e+03
  3.062570e+00    6.758555e+03
  3.115688e+00    9.048184e+03
  3.168806e+00    9.458271e+03
  3.221924e+00    7.751191e+03
  3.275043e+00    6.167667e+03
  3.328161e+00    5.502908e+03
  3.381279e+00    5.567835e+03
  3.434397e+00    5.236863e+03
  3.487515e+00    4.983551e+03
  3.540633e+00    4.902157e+03
  3.593751e+00    4.754302e+03
  3.646870e+00    4.753731e+03
  3.699988e+00    4.894859e+03
  3.753106e+00    5.115420e+03
  3.806224e+00    5.275299e+03
  3.859342e+00    5.392873e+03
  3.912460e+00    5.624638e+03
  3.965579e+00    6.015964e+03
  4.018697e+00    6.554177e+03
  4.071815e+00    6.987773e+03
  4.124933e+00    6.929444e+03
  4.178051e+00    6.620906e+03
  4.231169e+00    6.450552e+03
  4.284288e+00    6.763065e+03
  4.337406e+00    7.810346e+03
  4.390524e+00    9.290182e+03
  4.443642e+00    1.161947e+04
  4.496760e+00    1.287057e+04
  4.549878e+00    9.302290e+03
  4.602997e+00    6.169376e+03
  4.656115e+00    5.410640e+03
  4.709233e+00    5.258275e+03
  4.762351e+00    5.358055e+03
  4.815469e+00    5.304749e+03
  4.868587e+00    5.209387e+03
  4.921705e+00    5.231528e+03
  4.974824e+00    5.320437e+03
  5.027942e+00    5.371629e+03
  5.081060e+00    5.456721e+03
  5.134178e+00    5.394047e+03
  5.187296e+00    5.186421e+03
  5.240414e+00    4.880948e+03
  5.293533e+00    4.660869e+03
  5.346651e+00    4.522792e+03
  5.399769e+00    4.419865e+03
  5.452887e+00    4.405904e+03
  5.506005e+00    4.378980e+03
  5.559123e+00    4.018529e+03
  5.612242e+00    3.746315e+03
  5.665360e+00    3.659033e+03
  5.718478e+00    3.574044e+03
  5.771596e+00    3.545385e+03
  5.824714e+00    3.599573e+03
  5.877832e+00    3.710569e+03
  5.930951e+00    3.872609e+03
  5.984069e+00    3.993792e+03
  6.037187e+00    3.995200e+03
  6.090305e+00    3.897549e+03
  6.143423e+00    3.782382e+03
  6.196541e+00    3.837468e+03
  6.249660e+00    4.011257e+03
  6.302778e+00    3.994043e+03
  6.355896e+00    3.729319e+03
  6.409014e+00    3.587535e+03
  6.462132e+00    3.512744e+03
  6.515250e+00    3.443308e+03
  6.568368e+00    3.453653e+03
  6.621487e+00    3.476943e+03
  6.674605e+00    3.515684e+03
  6.727723e+00    3.583148e+03
  6.780841e+00    3.572207e+03
  6.833959e+00    3.485136e+03
  6.887077e+00    3.386855e+03
  6.940196e+00    3.318331e+03
  6.993314e+00    3.347298e+03
  7.046432e+00    3.364900e+03
  7.099550e+00    3.281118e+03
  7.152668e+00    3.202450e+03
  7.205786e+00    3.146466e+03
  7.258905e+00    3.107819e+03
  7.312023e+00    3.125289e+03
  7.365141e+00    3.171533e+03
  7.418259e+00    3.226358e+03
  7.471377e+00    3.278098e+03
  7.524495e+00    3.339084e+03
  7.577614e+00    3.420399e+03
  7.630732e+00    3.479551e+03
  7.683850e+00    3.595224e+03
  7.736968e+00    3.738469e+03
  7.790086e+00    3.675001e+03
  7.843204e+00    3.446039e+03
  7.896322e+00    3.245943e+03
  7.949441e+00    3.146291e+03
  8.002559e+00    3.119320e+03
  8.055677e+00    3.119534e+03
  8.108795e+00    3.115707e+03
  8.161913e+00    3.096437e+03
  8.215031e+00    3.039695e+03
  8.268150e+00    2.976003e+03
  8.321268e+00    2.927671e+03
  8.374386e+00    2.904746e+03
  8.427504e+00    2.887248e+03
  8.480622e+00    2.861903e+03
  8.533740e+00    2.806986e+03
  8.586859e+00    2.836634e+03
  8.639977e+00    2.834748e+03
  8.693095e+00    2.829740e+03
  8.746213e+00    2.830575e+03
  8.799331e+00    2.820074e+03
  8.852449e+00    2.814155e+03
  8.905568e+00    2.829009e+03
  8.958686e+00    2.837156e+03
  9.011804e+00    2.839499e+03
  9.064922e+00    2.777278e+03
  9.118040e+00    2.712077e+03
  9.171158e+00    2.688315e+03
  9.224276e+00    2.673636e+03
  9.277395e+00    2.641842e+03
  9.330513e+00    2.623925e+03
  9.383631e+00    2.608922e+03
  9.436749e+00    2.594335e+03
  9.489867e+00    2.597899e+03
  9.542985e+00    2.593080e+03
  9.596104e+00    2.573938e+03
  9.649222e+00    2.568307e+03
  9.702340e+00    2.569514e+03
  9.755458e+00    2.565007e+03
  9.808576e+00    2.560198e+03
  9.861694e+00    2.563731e+03
  9.914813e+00    2.567384e+03
  9.967931e+00    2.549600e+03
  1.002105e+01    2.507465e+03
  1.007417e+01    2.464201e+03
  1.012729e+01    2.438584e+03
  1.018040e+01    2.437470e+03
  1.023352e+01    2.423297e+03
  1.028664e+01    2.394382e+03
  1.033976e+01    2.375468e+03
  1.039288e+01    2.390552e+03
  1.044599e+01    2.375183e+03
  1.049911e+01    2.372094e+03
  1.055223e+01    2.353797e+03
  1.060535e+01    2.350276e+03
  1.065847e+01    2.346125e+03
  1.071158e+01    2.338764e+03
  1.076470e+01    2.329622e+03
  1.081782e+01    2.328727e+03
  1.087094e+01    2.315336e+03
  1.092406e+01    2.323044e+03
  1.097718e+01    2.323516e+03
  1.103029e+01    2.323348e+03
  1.108341e+01    2.321189e+03
  1.113653e+01    2.306629e+03
  1.118965e+01    2.294495e+03
  1.124277e+01    2.281794e+03
  1.129588e+01    2.275421e+03
  1.134900e+01    2.261748e+03
  1.140212e+01    2.262315e+03
  1.145524e+01    2.256663e+03
  1.150836e+01    2.264232e+03
  1.156148e+01    2.260013e+03
  1.161459e+01    2.264791e+03
  1.166771e+01    2.261107e+03
  1.172083e+01    2.271009e+03
  1.177395e+01    2.253958e+03
  1.182707e+01    2.241876e+03
  1.188018e+01    2.241812e+03
  1.193330e+01    2.225841e+03
  1.198642e+01    2.206266e+03
  1.203954e+01    2.184355e+03
  1.209266e+01    2.175370e+03
  1.214578e+01    2.164608e+03
  1.219889e+01    2.165641e+03
  1.225201e+01    2.166918e+03
  1.230513e+01    2.159755e+03
  1.235825e+01    2.163871e+03
  1.241137e+01    2.149658e+03
  1.246448e+01    2.149306e+03
  1.251760e+01    2.143097e+03
  1.257072e+01    2.137917e+03
  1.262384e+01    2.143472e+03
  1.267696e+01    2.127552e+03
  1.273008e+01    2.112962e+03
  1.278319e+01    2.104898e+03
  1.283631e+01    2.096252e+03
  1.288943e+01    2.091792e+03
  1.294255e+01    2.079244e+03
  1.299567e+01    2.073829e+03
  1.304878e+01    2.067446e+03
  1.310190e+01    2.064446e+03
  1.315502e+01    2.059349e+03
  1.320814e+01    2.038271e+03
  1.326126e+01    2.014917e+03
  1.331437e+01    2.005378e+03
  1.336749e+01    1.997148e+03
  1.342061e+01    1.985603e+03
  1.347373e+01    2.013502e+03
  1.352685e+01    2.015489e+03
  1.357997e+01    2.002904e+03
  1.363308e+01    1.990783e+03
  1.368620e+01    1.980312e+03
  1.373932e+01    1.971179e+03
  1.379244e+01    1.963565e+03
  1.384556e+01    1.959396e+03
  1.389867e+01    1.950827e+03
  1.395179e+01    1.943237e+03
  1.400491e+01    1.940266e+03
  1.405803e+01    1.935987e+03
  1.411115e+01    1.927874e+03
  1.416427e+01    1.918668e+03
  1.421738e+01    1.915145e+03
  1.427050e+01    1.907326e+03
  1.432362e+01    1.907406e+03
  1.437674e+01    1.904105e+03
  1.442986e+01    1.893247e+03
  1.448297e+01    1.885105e+03
  1.453609e+01    1.879213e+03
  1.458921e+01    1.869509e+03
  1.464233e+01    1.863507e+03
  1.469545e+01    1.858961e+03
  1.474857e+01    1.838187e+03
  1.480168e+01    1.850086e+03
  1.485480e+01    1.845447e+03
  1.490792e+01    1.842246e+03
  1.496104e+01    1.833461e+03
  1.501416e+01    1.831446e+03
  1.506727e+01    1.826700e+03
  1.512039e+01    1.823279e+03
  1.517351e+01    1.837295e+03
  1.522663e+01    1.852792e+03
  1.527975e+01    1.845771e+03
  1.533286e+01    1.829711e+03
  1.538598e+01    1.822136e+03
  1.543910e+01    1.814393e+03
  1.549222e+01    1.810751e+03
  1.554534e+01    1.811854e+03
  1.559846e+01    1.808944e+03
  1.565157e+01    1.800471e+03
  1.570469e+01    1.794657e+03
  1.575781e+01    1.791547e+03
  1.581093e+01    1.789292e+03
  1.586405e+01    1.787361e+03
  1.591716e+01    1.781243e+03
  1.597028e+01    1.777370e+03
  1.602340e+01    1.760209e+03
  1.607652e+01    1.749638e+03
  1.612964e+01    1.724839e+03
  1.618276e+01    1.713769e+03
  1.623587e+01    1.715303e+03
  1.628899e+01    1.728846e+03
  1.634211e+01    1.728691e+03
  1.639523e+01    1.721415e+03
  1.644835e+01    1.723917e+03
  1.650146e+01    1.718175e+03
  1.655458e+01    1.716360e+03
  1.660770e+01    1.711545e+03
  1.666082e+01    1.707196e+03
  1.671394e+01    1.708051e+03
  1.676706e+01    1.702306e+03
  1.682017e+01    1.715683e+03
  1.687329e+01    1.705363e+03
  1.692641e+01    1.700887e+03
  1.697953e+01    1.693482e+03
  1.703265e+01    1.691463e+03
  1.708576e+01    1.689313e+03
  1.713888e+01    1.680816e+03
  1.719200e+01    1.680794e+03
  1.724512e+01    1.671499e+03
  1.729824e+01    1.671898e+03
  1.735136e+01    1.666685e+03
  1.740447e+01    1.644741e+03
  1.745759e+01    1.650289e+03
  1.751071e+01    1.651139e+03
  1.756383e+01    1.663295e+03
  1.761695e+01    1.646301e+03
  1.767006e+01    1.643570e+03
  1.772318e+01    1.634354e+03
  1.777630e+01    1.634465e+03
  1.782942e+01    1.625413e+03
  1.788254e+01    1.621700e+03
  1.793565e+01    1.617851e+03
  1.798877e+01    1.617256e+03
  1.804189e+01    1.609439e+03
  1.809501e+01    1.605141e+03
  1.814813e+01    1.602051e+03
  1.820125e+01    1.596270e+03
  1.825436e+01    1.602206e+03
  1.830748e+01    1.596715e+03
  1.836060e+01    1.591028e+03
  1.841372e+01    1.588153e+03
  1.846684e+01    1.583472e+03
  1.851995e+01    1.563269e+03
  1.857307e+01    1.549114e+03
  1.862619e+01    1.538641e+03
  1.867931e+01    1.536276e+03
  1.873243e+01    1.554312e+03
  1.878555e+01    1.557866e+03
  1.883866e+01    1.555176e+03
  1.889178e+01    1.555739e+03
  1.894490e+01    1.565794e+03
  1.899802e+01    1.557179e+03
  1.905114e+01    1.552228e+03
  1.910425e+01    1.546577e+03
  1.915737e+01    1.542441e+03
  1.921049e+01    1.538923e+03
  1.926361e+01    1.534620e+03
  1.931673e+01    1.531854e+03
  1.936985e+01    1.530522e+03
  1.942296e+01    1.527855e+03
  1.947608e+01    1.527114e+03
  1.952920e+01    1.524336e+03
  1.958232e+01    1.523605e+03
  1.963544e+01    1.530227e+03
  1.968855e+01    1.515345e+03
  1.974167e+01    1.504658e+03
  1.979479e+01    1.508934e+03
  1.984791e+01    1.507886e+03
  1.990103e+01    1.506186e+03
  1.995414e+01    1.503897e+03
  2.000726e+01    1.501065e+03
  2.006038e+01    1.496997e+03
  2.011350e+01    1.493445e+03
  2.016662e+01    1.487452e+03
  2.021974e+01    1.490870e+03
  2.027285e+01    1.497106e+03
  2.032597e+01    1.480688e+03
  2.037909e+01    1.477269e+03
  2.043221e+01    1.471557e+03
  2.048533e+01    1.470477e+03
  2.053844e+01    1.469438e+03
  2.059156e+01    1.464039e+03
  2.064468e+01    1.460334e+03
  2.069780e+01    1.442070e+03
  2.075092e+01    1.416967e+03
  2.080404e+01    1.401253e+03
  2.085715e+01    1.422493e+03
  2.091027e+01    1.448812e+03
  2.096339e+01    1.456680e+03
  2.101651e+01    1.461072e+03
  2.106963e+01    1.464558e+03
  2.112274e+01    1.467443e+03
  2.117586e+01    1.468367e+03
  2.122898e+01    1.471415e+03
  2.128210e+01    1.468331e+03
  2.133522e+01    1.468698e+03
  2.138834e+01    1.466927e+03
  2.144145e+01    1.467699e+03
  2.149457e+01    1.467217e+03
  2.154769e+01    1.467544e+03
  2.160081e+01    1.465151e+03
  2.165393e+01    1.466558e+03
  2.170704e+01    1.467230e+03
  2.176016e+01    1.456269e+03
  2.181328e+01    1.464468e+03
  2.186640e+01    1.466491e+03
  2.191952e+01    1.465061e+03
  2.197263e+01    1.461964e+03
  2.202575e+01    1.460595e+03
  2.207887e+01    1.460596e+03
  2.213199e+01    1.456969e+03
  2.218511e+01    1.456001e+03
  2.223823e+01    1.455759e+03
  2.229134e+01    1.454655e+03
  2.234446e+01    1.452288e+03
  2.239758e+01    1.453476e+03
  2.245070e+01    1.450913e+03
  2.250382e+01    1.451913e+03
  2.255693e+01    1.447785e+03
  2.261005e+01    1.430674e+03
  2.266317e+01    1.419049e+03
  2.271629e+01    1.410094e+03
  2.276941e+01    1.400229e+03
  2.282253e+01    1.392347e+03
  2.287564e+01    1.389562e+03
  2.292876e+01    1.382567e+03
  2.298188e+01    1.381190e+03
  2.303500e+01    1.378345e+03
  2.308812e+01    1.376031e+03
  2.314123e+01    1.375116e+03
  2.319435e+01    1.368018e+03
  2.324747e+01    1.363179e+03
  2.330059e+01    1.358414e+03
  2.335371e+01    1.356393e+03
  2.340683e+01    1.352576e+03
  2.345994e+01    1.349525e+03
  2.351306e+01    1.345283e+03
  2.356618e+01    1.343147e+03
  2.361930e+01    1.336043e+03
  2.367242e+01    1.331601e+03
  2.372553e+01    1.325883e+03
  2.377865e+01    1.320662e+03
  2.383177e+01    1.313729e+03
  2.388489e+01    1.309966e+03
  2.393801e+01    1.307118e+03
  2.399113e+01    1.304958e+03
  2.404424e+01    1.301356e+03
  2.409736e+01    1.302378e+03
  2.415048e+01    1.297160e+03
  2.420360e+01    1.293610e+03
  2.425672e+01    1.290103e+03
  2.430983e+01    1.288179e+03
  2.436295e+01    1.286228e+03
  2.441607e+01    1.284042e+03
  2.446919e+01    1.281302e+03
  2.452231e+01    1.280652e+03
  2.457542e+01    1.278622e+03
  2.462854e+01    1.275352e+03
  2.468166e+01    1.276501e+03
  2.473478e+01    1.269639e+03
  2.478790e+01    1.263420e+03
  2.484102e+01    1.260485e+03
  2.489413e+01    1.253681e+03
  2.494725e+01    1.250226e+03
  2.500037e+01    1.246153e+03
  2.505349e+01    1.241441e+03
  2.510661e+01    1.237920e+03
  2.515972e+01    1.236260e+03
  2.521284e+01    1.232795e+03
  2.526596e+01    1.232701e+03
  2.531908e+01    1.228105e+03
  2.537220e+01    1.227380e+03
  2.542532e+01    1.220771e+03
  2.547843e+01    1.221780e+03
  2.553155e+01    1.215568e+03
  2.558467e+01    1.208682e+03
  2.563779e+01    1.199705e+03
  2.569091e+01    1.193847e+03
  2.574402e+01    1.186449e+03
  2.579714e+01    1.179578e+03
  2.585026e+01    1.172572e+03
  2.590338e+01    1.164753e+03
  2.595650e+01    1.163863e+03
  2.600962e+01    1.163195e+03
  2.606273e+01    1.160480e+03
  2.611585e+01    1.159968e+03
  2.616897e+01    1.158669e+03
  2.622209e+01    1.155583e+03
  2.627521e+01    1.151318e+03
  2.632832e+01    1.146076e+03
  2.638144e+01    1.142909e+03
  2.643456e+01    1.141471e+03
  2.648768e+01    1.121861e+03
  2.654080e+01    1.094777e+03
