# == pyFAI calibration ==
# Distance Sample to Detector: 0.2946421923531691 m
# PONI: 2.875e-01, 2.439e-01 m
# Rotations: -0.010990 -0.009181 0.000003 rad
# 
# == Fit2d calibration ==
# Distance Sample-beamCenter: 294.672 mm
# Center: x=1436.809, y=1655.851 pix
# Tilt: 0.820 deg  TiltPlanRot: -39.874 deg
# 
# Detector Pilatus 2M	 PixelSize= 1.720e-04, 1.720e-04 m
#    Detector has a mask: True 
#    Detector has a dark current: False 
#    detector has a flat field: False 
# 
# Wavelength: 2.0732883349524408e-11 m
# Mask applied: from detector
# Dark current applied: False
# Flat field applied: False
# Polarization factor: None
# Normalization factor: 1.0
# --> /gpfs/current/raw/FMue_3/FMue_3_20231024_175355_00089.dat
#        q_A^-1             I 
  3.483473e-02             nan
  8.795289e-02             nan
  1.410711e-01             nan
  1.941892e-01             nan
  2.473074e-01             nan
  3.004255e-01             nan
  3.535437e-01             nan
  4.066619e-01    1.388729e+04
  4.597800e-01    1.258872e+04
  5.128982e-01    1.056623e+04
  5.660163e-01    9.443545e+03
  6.191345e-01    8.913572e+03
  6.722527e-01    8.648454e+03
  7.253708e-01    8.580356e+03
  7.784890e-01    8.559067e+03
  8.316071e-01    8.681459e+03
  8.847253e-01    8.846477e+03
  9.378435e-01    9.279014e+03
  9.909616e-01    1.001091e+04
  1.044080e+00    1.015935e+04
  1.097198e+00    9.937343e+03
  1.150316e+00    1.035771e+04
  1.203434e+00    1.125648e+04
  1.256552e+00    1.224540e+04
  1.309671e+00    1.295944e+04
  1.362789e+00    1.398712e+04
  1.415907e+00    1.453920e+04
  1.469025e+00    1.466501e+04
  1.522143e+00    1.449362e+04
  1.575261e+00    1.387478e+04
  1.628380e+00    1.311584e+04
  1.681498e+00    1.219313e+04
  1.734616e+00    1.122893e+04
  1.787734e+00    1.039831e+04
  1.840852e+00    9.704950e+03
  1.893970e+00    9.218586e+03
  1.947089e+00    9.169418e+03
  2.000207e+00    8.882327e+03
  2.053325e+00    8.353170e+03
  2.106443e+00    8.373507e+03
  2.159561e+00    8.751107e+03
  2.212679e+00    9.011902e+03
  2.265797e+00    9.152647e+03
  2.318916e+00    8.806194e+03
  2.372034e+00    8.150921e+03
  2.425152e+00    8.339670e+03
  2.478270e+00    9.189021e+03
  2.531388e+00    1.074674e+04
  2.584506e+00    1.164579e+04
  2.637625e+00    1.076174e+04
  2.690743e+00    9.383270e+03
  2.743861e+00    8.268891e+03
  2.796979e+00    6.834922e+03
  2.850097e+00    5.802999e+03
  2.903215e+00    5.454357e+03
  2.956334e+00    5.389831e+03
  3.009452e+00    5.663154e+03
  3.062570e+00    6.743480e+03
  3.115688e+00    9.006243e+03
  3.168806e+00    9.461190e+03
  3.221924e+00    7.782927e+03
  3.275043e+00    6.196850e+03
  3.328161e+00    5.521039e+03
  3.381279e+00    5.602619e+03
  3.434397e+00    5.253666e+03
  3.487515e+00    4.994156e+03
  3.540633e+00    4.916397e+03
  3.593751e+00    4.757423e+03
  3.646870e+00    4.761531e+03
  3.699988e+00    4.898152e+03
  3.753106e+00    5.121305e+03
  3.806224e+00    5.270182e+03
  3.859342e+00    5.391081e+03
  3.912460e+00    5.612700e+03
  3.965579e+00    5.980278e+03
  4.018697e+00    6.499610e+03
  4.071815e+00    6.942339e+03
  4.124933e+00    6.917366e+03
  4.178051e+00    6.627970e+03
  4.231169e+00    6.462889e+03
  4.284288e+00    6.774235e+03
  4.337406e+00    7.783166e+03
  4.390524e+00    9.205810e+03
  4.443642e+00    1.153330e+04
  4.496760e+00    1.287816e+04
  4.549878e+00    9.367194e+03
  4.602997e+00    6.195388e+03
  4.656115e+00    5.419308e+03
  4.709233e+00    5.261512e+03
  4.762351e+00    5.362207e+03
  4.815469e+00    5.316543e+03
  4.868587e+00    5.207215e+03
  4.921705e+00    5.229342e+03
  4.974824e+00    5.312221e+03
  5.027942e+00    5.360859e+03
  5.081060e+00    5.439084e+03
  5.134178e+00    5.380384e+03
  5.187296e+00    5.173669e+03
  5.240414e+00    4.881363e+03
  5.293533e+00    4.670312e+03
  5.346651e+00    4.527256e+03
  5.399769e+00    4.426224e+03
  5.452887e+00    4.409660e+03
  5.506005e+00    4.388100e+03
  5.559123e+00    4.024300e+03
  5.612242e+00    3.747960e+03
  5.665360e+00    3.661471e+03
  5.718478e+00    3.578005e+03
  5.771596e+00    3.544212e+03
  5.824714e+00    3.591079e+03
  5.877832e+00    3.700732e+03
  5.930951e+00    3.854470e+03
  5.984069e+00    3.974012e+03
  6.037187e+00    3.985206e+03
  6.090305e+00    3.893720e+03
  6.143423e+00    3.781762e+03
  6.196541e+00    3.831152e+03
  6.249660e+00    4.009443e+03
  6.302778e+00    4.001926e+03
  6.355896e+00    3.734060e+03
  6.409014e+00    3.595997e+03
  6.462132e+00    3.513201e+03
  6.515250e+00    3.446749e+03
  6.568368e+00    3.452531e+03
  6.621487e+00    3.475892e+03
  6.674605e+00    3.506942e+03
  6.727723e+00    3.572713e+03
  6.780841e+00    3.565565e+03
  6.833959e+00    3.481287e+03
  6.887077e+00    3.388039e+03
  6.940196e+00    3.321521e+03
  6.993314e+00    3.348445e+03
  7.046432e+00    3.369570e+03
  7.099550e+00    3.288752e+03
  7.152668e+00    3.203975e+03
  7.205786e+00    3.153621e+03
  7.258905e+00    3.110168e+03
  7.312023e+00    3.123811e+03
  7.365141e+00    3.166598e+03
  7.418259e+00    3.221197e+03
  7.471377e+00    3.272257e+03
  7.524495e+00    3.335889e+03
  7.577614e+00    3.413707e+03
  7.630732e+00    3.471719e+03
  7.683850e+00    3.585891e+03
  7.736968e+00    3.741656e+03
  7.790086e+00    3.681730e+03
  7.843204e+00    3.452617e+03
  7.896322e+00    3.247045e+03
  7.949441e+00    3.142678e+03
  8.002559e+00    3.114828e+03
  8.055677e+00    3.113313e+03
  8.108795e+00    3.110135e+03
  8.161913e+00    3.098085e+03
  8.215031e+00    3.041609e+03
  8.268150e+00    2.975428e+03
  8.321268e+00    2.928515e+03
  8.374386e+00    2.905717e+03
  8.427504e+00    2.885328e+03
  8.480622e+00    2.864242e+03
  8.533740e+00    2.805600e+03
  8.586859e+00    2.834673e+03
  8.639977e+00    2.836361e+03
  8.693095e+00    2.828302e+03
  8.746213e+00    2.832681e+03
  8.799331e+00    2.819922e+03
  8.852449e+00    2.811708e+03
  8.905568e+00    2.829333e+03
  8.958686e+00    2.836963e+03
  9.011804e+00    2.842211e+03
  9.064922e+00    2.779013e+03
  9.118040e+00    2.711012e+03
  9.171158e+00    2.686561e+03
  9.224276e+00    2.673061e+03
  9.277395e+00    2.639274e+03
  9.330513e+00    2.622550e+03
  9.383631e+00    2.609692e+03
  9.436749e+00    2.595971e+03
  9.489867e+00    2.598176e+03
  9.542985e+00    2.591987e+03
  9.596104e+00    2.574152e+03
  9.649222e+00    2.568833e+03
  9.702340e+00    2.568604e+03
  9.755458e+00    2.563435e+03
  9.808576e+00    2.558816e+03
  9.861694e+00    2.563283e+03
  9.914813e+00    2.566317e+03
  9.967931e+00    2.553563e+03
  1.002105e+01    2.508763e+03
  1.007417e+01    2.463896e+03
  1.012729e+01    2.438703e+03
  1.018040e+01    2.439194e+03
  1.023352e+01    2.422601e+03
  1.028664e+01    2.395684e+03
  1.033976e+01    2.375839e+03
  1.039288e+01    2.390766e+03
  1.044599e+01    2.377048e+03
  1.049911e+01    2.373566e+03
  1.055223e+01    2.355673e+03
  1.060535e+01    2.353631e+03
  1.065847e+01    2.344567e+03
  1.071158e+01    2.339140e+03
  1.076470e+01    2.332016e+03
  1.081782e+01    2.328902e+03
  1.087094e+01    2.316735e+03
  1.092406e+01    2.320254e+03
  1.097718e+01    2.326730e+03
  1.103029e+01    2.324251e+03
  1.108341e+01    2.321203e+03
  1.113653e+01    2.310318e+03
  1.118965e+01    2.294156e+03
  1.124277e+01    2.282702e+03
  1.129588e+01    2.275779e+03
  1.134900e+01    2.262545e+03
  1.140212e+01    2.262611e+03
  1.145524e+01    2.257076e+03
  1.150836e+01    2.263008e+03
  1.156148e+01    2.258698e+03
  1.161459e+01    2.264452e+03
  1.166771e+01    2.259205e+03
  1.172083e+01    2.270571e+03
  1.177395e+01    2.255436e+03
  1.182707e+01    2.244655e+03
  1.188018e+01    2.242761e+03
  1.193330e+01    2.225198e+03
  1.198642e+01    2.207645e+03
  1.203954e+01    2.185037e+03
  1.209266e+01    2.176084e+03
  1.214578e+01    2.163763e+03
  1.219889e+01    2.166284e+03
  1.225201e+01    2.162959e+03
  1.230513e+01    2.162006e+03
  1.235825e+01    2.165385e+03
  1.241137e+01    2.151716e+03
  1.246448e+01    2.148976e+03
  1.251760e+01    2.144210e+03
  1.257072e+01    2.139304e+03
  1.262384e+01    2.143027e+03
  1.267696e+01    2.128530e+03
  1.273008e+01    2.113843e+03
  1.278319e+01    2.105914e+03
  1.283631e+01    2.097018e+03
  1.288943e+01    2.092969e+03
  1.294255e+01    2.079552e+03
  1.299567e+01    2.074882e+03
  1.304878e+01    2.067425e+03
  1.310190e+01    2.064924e+03
  1.315502e+01    2.062135e+03
  1.320814e+01    2.039304e+03
  1.326126e+01    2.015350e+03
  1.331437e+01    2.004561e+03
  1.336749e+01    1.996238e+03
  1.342061e+01    1.986617e+03
  1.347373e+01    2.012674e+03
  1.352685e+01    2.014745e+03
  1.357997e+01    2.003935e+03
  1.363308e+01    1.991976e+03
  1.368620e+01    1.981736e+03
  1.373932e+01    1.971782e+03
  1.379244e+01    1.966883e+03
  1.384556e+01    1.959823e+03
  1.389867e+01    1.950364e+03
  1.395179e+01    1.944386e+03
  1.400491e+01    1.940224e+03
  1.405803e+01    1.937189e+03
  1.411115e+01    1.930006e+03
  1.416427e+01    1.919266e+03
  1.421738e+01    1.916202e+03
  1.427050e+01    1.908529e+03
  1.432362e+01    1.909943e+03
  1.437674e+01    1.904327e+03
  1.442986e+01    1.892469e+03
  1.448297e+01    1.885849e+03
  1.453609e+01    1.878940e+03
  1.458921e+01    1.868588e+03
  1.464233e+01    1.865490e+03
  1.469545e+01    1.859436e+03
  1.474857e+01    1.839863e+03
  1.480168e+01    1.850659e+03
  1.485480e+01    1.846955e+03
  1.490792e+01    1.842779e+03
  1.496104e+01    1.834072e+03
  1.501416e+01    1.831222e+03
  1.506727e+01    1.826565e+03
  1.512039e+01    1.823089e+03
  1.517351e+01    1.837609e+03
  1.522663e+01    1.852033e+03
  1.527975e+01    1.846268e+03
  1.533286e+01    1.831888e+03
  1.538598e+01    1.821269e+03
  1.543910e+01    1.814533e+03
  1.549222e+01    1.811269e+03
  1.554534e+01    1.811963e+03
  1.559846e+01    1.808426e+03
  1.565157e+01    1.802870e+03
  1.570469e+01    1.795781e+03
  1.575781e+01    1.792115e+03
  1.581093e+01    1.788105e+03
  1.586405e+01    1.786497e+03
  1.591716e+01    1.781244e+03
  1.597028e+01    1.775518e+03
  1.602340e+01    1.758430e+03
  1.607652e+01    1.748880e+03
  1.612964e+01    1.725057e+03
  1.618276e+01    1.713512e+03
  1.623587e+01    1.714587e+03
  1.628899e+01    1.731453e+03
  1.634211e+01    1.728880e+03
  1.639523e+01    1.722058e+03
  1.644835e+01    1.725212e+03
  1.650146e+01    1.717830e+03
  1.655458e+01    1.715804e+03
  1.660770e+01    1.710538e+03
  1.666082e+01    1.708149e+03
  1.671394e+01    1.707221e+03
  1.676706e+01    1.704673e+03
  1.682017e+01    1.717372e+03
  1.687329e+01    1.706057e+03
  1.692641e+01    1.701151e+03
  1.697953e+01    1.695813e+03
  1.703265e+01    1.690992e+03
  1.708576e+01    1.687870e+03
  1.713888e+01    1.680300e+03
  1.719200e+01    1.680718e+03
  1.724512e+01    1.673356e+03
  1.729824e+01    1.673229e+03
  1.735136e+01    1.667106e+03
  1.740447e+01    1.643996e+03
  1.745759e+01    1.651673e+03
  1.751071e+01    1.653742e+03
  1.756383e+01    1.663287e+03
  1.761695e+01    1.647950e+03
  1.767006e+01    1.644233e+03
  1.772318e+01    1.635699e+03
  1.777630e+01    1.634224e+03
  1.782942e+01    1.625750e+03
  1.788254e+01    1.621746e+03
  1.793565e+01    1.619799e+03
  1.798877e+01    1.616216e+03
  1.804189e+01    1.610175e+03
  1.809501e+01    1.606146e+03
  1.814813e+01    1.603661e+03
  1.820125e+01    1.597454e+03
  1.825436e+01    1.602328e+03
  1.830748e+01    1.595386e+03
  1.836060e+01    1.591676e+03
  1.841372e+01    1.589352e+03
  1.846684e+01    1.584511e+03
  1.851995e+01    1.563532e+03
  1.857307e+01    1.550107e+03
  1.862619e+01    1.539885e+03
  1.867931e+01    1.536689e+03
  1.873243e+01    1.556187e+03
  1.878555e+01    1.557683e+03
  1.883866e+01    1.557450e+03
  1.889178e+01    1.556500e+03
  1.894490e+01    1.567244e+03
  1.899802e+01    1.557743e+03
  1.905114e+01    1.554025e+03
  1.910425e+01    1.547188e+03
  1.915737e+01    1.544325e+03
  1.921049e+01    1.538956e+03
  1.926361e+01    1.535986e+03
  1.931673e+01    1.533098e+03
  1.936985e+01    1.531499e+03
  1.942296e+01    1.529358e+03
  1.947608e+01    1.529210e+03
  1.952920e+01    1.524758e+03
  1.958232e+01    1.525687e+03
  1.963544e+01    1.530565e+03
  1.968855e+01    1.515665e+03
  1.974167e+01    1.504885e+03
  1.979479e+01    1.508910e+03
  1.984791e+01    1.507775e+03
  1.990103e+01    1.506237e+03
  1.995414e+01    1.503673e+03
  2.000726e+01    1.501087e+03
  2.006038e+01    1.497075e+03
  2.011350e+01    1.493289e+03
  2.016662e+01    1.487873e+03
  2.021974e+01    1.491702e+03
  2.027285e+01    1.498184e+03
  2.032597e+01    1.480453e+03
  2.037909e+01    1.477157e+03
  2.043221e+01    1.472137e+03
  2.048533e+01    1.470303e+03
  2.053844e+01    1.468907e+03
  2.059156e+01    1.464178e+03
  2.064468e+01    1.460691e+03
  2.069780e+01    1.441516e+03
  2.075092e+01    1.416261e+03
  2.080404e+01    1.404065e+03
  2.085715e+01    1.422913e+03
  2.091027e+01    1.449622e+03
  2.096339e+01    1.457286e+03
  2.101651e+01    1.461132e+03
  2.106963e+01    1.465292e+03
  2.112274e+01    1.467705e+03
  2.117586e+01    1.469058e+03
  2.122898e+01    1.472034e+03
  2.128210e+01    1.468628e+03
  2.133522e+01    1.469463e+03
  2.138834e+01    1.468474e+03
  2.144145e+01    1.467969e+03
  2.149457e+01    1.469085e+03
  2.154769e+01    1.466332e+03
  2.160081e+01    1.465154e+03
  2.165393e+01    1.467406e+03
  2.170704e+01    1.467951e+03
  2.176016e+01    1.456808e+03
  2.181328e+01    1.464227e+03
  2.186640e+01    1.466203e+03
  2.191952e+01    1.464558e+03
  2.197263e+01    1.461472e+03
  2.202575e+01    1.459912e+03
  2.207887e+01    1.459895e+03
  2.213199e+01    1.457653e+03
  2.218511e+01    1.457653e+03
  2.223823e+01    1.458293e+03
  2.229134e+01    1.455255e+03
  2.234446e+01    1.453786e+03
  2.239758e+01    1.453210e+03
  2.245070e+01    1.450775e+03
  2.250382e+01    1.452651e+03
  2.255693e+01    1.448307e+03
  2.261005e+01    1.430595e+03
  2.266317e+01    1.418335e+03
  2.271629e+01    1.410188e+03
  2.276941e+01    1.400792e+03
  2.282253e+01    1.393172e+03
  2.287564e+01    1.390302e+03
  2.292876e+01    1.383628e+03
  2.298188e+01    1.381525e+03
  2.303500e+01    1.378897e+03
  2.308812e+01    1.375785e+03
  2.314123e+01    1.375522e+03
  2.319435e+01    1.370586e+03
  2.324747e+01    1.363048e+03
  2.330059e+01    1.360406e+03
  2.335371e+01    1.358475e+03
  2.340683e+01    1.352799e+03
  2.345994e+01    1.349753e+03
  2.351306e+01    1.346668e+03
  2.356618e+01    1.343710e+03
  2.361930e+01    1.335890e+03
  2.367242e+01    1.332162e+03
  2.372553e+01    1.324354e+03
  2.377865e+01    1.321776e+03
  2.383177e+01    1.314853e+03
  2.388489e+01    1.310781e+03
  2.393801e+01    1.304944e+03
  2.399113e+01    1.306255e+03
  2.404424e+01    1.302332e+03
  2.409736e+01    1.300434e+03
  2.415048e+01    1.295052e+03
  2.420360e+01    1.294091e+03
  2.425672e+01    1.291350e+03
  2.430983e+01    1.287623e+03
  2.436295e+01    1.287821e+03
  2.441607e+01    1.285645e+03
  2.446919e+01    1.283020e+03
  2.452231e+01    1.281512e+03
  2.457542e+01    1.278174e+03
  2.462854e+01    1.275740e+03
  2.468166e+01    1.275234e+03
  2.473478e+01    1.269147e+03
  2.478790e+01    1.263029e+03
  2.484102e+01    1.259319e+03
  2.489413e+01    1.255345e+03
  2.494725e+01    1.250195e+03
  2.500037e+01    1.247813e+03
  2.505349e+01    1.241289e+03
  2.510661e+01    1.236814e+03
  2.515972e+01    1.235400e+03
  2.521284e+01    1.233547e+03
  2.526596e+01    1.231551e+03
  2.531908e+01    1.227396e+03
  2.537220e+01    1.226758e+03
  2.542532e+01    1.224512e+03
  2.547843e+01    1.219779e+03
  2.553155e+01    1.215545e+03
  2.558467e+01    1.209197e+03
  2.563779e+01    1.196248e+03
  2.569091e+01    1.195867e+03
  2.574402e+01    1.187028e+03
  2.579714e+01    1.181327e+03
  2.585026e+01    1.176333e+03
  2.590338e+01    1.166933e+03
  2.595650e+01    1.167309e+03
  2.600962e+01    1.162780e+03
  2.606273e+01    1.162307e+03
  2.611585e+01    1.164025e+03
  2.616897e+01    1.155581e+03
  2.622209e+01    1.157971e+03
  2.627521e+01    1.152074e+03
  2.632832e+01    1.148778e+03
  2.638144e+01    1.151560e+03
  2.643456e+01    1.145244e+03
  2.648768e+01    1.113535e+03
  2.654080e+01    1.120318e+03
