# == pyFAI calibration ==
# Distance Sample to Detector: 0.2946421923531691 m
# PONI: 2.875e-01, 2.439e-01 m
# Rotations: -0.010990 -0.009181 0.000003 rad
# 
# == Fit2d calibration ==
# Distance Sample-beamCenter: 294.672 mm
# Center: x=1436.809, y=1655.851 pix
# Tilt: 0.820 deg  TiltPlanRot: -39.874 deg
# 
# Detector Pilatus 2M	 PixelSize= 1.720e-04, 1.720e-04 m
#    Detector has a mask: True 
#    Detector has a dark current: False 
#    detector has a flat field: False 
# 
# Wavelength: 2.0732883349524408e-11 m
# Mask applied: from detector
# Dark current applied: False
# Flat field applied: False
# Polarization factor: None
# Normalization factor: 1.0
# --> /gpfs/current/raw/FMue_3/FMue_3_20231024_175355_00043.dat
#        q_A^-1             I 
  3.483473e-02             nan
  8.795289e-02             nan
  1.410711e-01             nan
  1.941892e-01             nan
  2.473074e-01             nan
  3.004255e-01             nan
  3.535437e-01             nan
  4.066619e-01    1.009875e+04
  4.597800e-01    9.566134e+03
  5.128982e-01    8.526052e+03
  5.660163e-01    8.081816e+03
  6.191345e-01    8.051278e+03
  6.722527e-01    8.126979e+03
  7.253708e-01    8.423850e+03
  7.784890e-01    1.266190e+04
  8.316071e-01    2.658278e+04
  8.847253e-01    1.763630e+04
  9.378435e-01    9.523130e+03
  9.909616e-01    1.004036e+04
  1.044080e+00    1.017479e+04
  1.097198e+00    9.917454e+03
  1.150316e+00    1.027277e+04
  1.203434e+00    1.098312e+04
  1.256552e+00    1.200837e+04
  1.309671e+00    1.279961e+04
  1.362789e+00    1.370374e+04
  1.415907e+00    1.439407e+04
  1.469025e+00    1.461203e+04
  1.522143e+00    1.454658e+04
  1.575261e+00    1.406816e+04
  1.628380e+00    1.526614e+04
  1.681498e+00    1.723712e+04
  1.734616e+00    1.285433e+04
  1.787734e+00    1.051823e+04
  1.840852e+00    9.728506e+03
  1.893970e+00    9.191990e+03
  1.947089e+00    9.095978e+03
  2.000207e+00    8.719670e+03
  2.053325e+00    8.018471e+03
  2.106443e+00    7.789704e+03
  2.159561e+00    7.926500e+03
  2.212679e+00    8.094468e+03
  2.265797e+00    8.331238e+03
  2.318916e+00    8.214885e+03
  2.372034e+00    8.837058e+03
  2.425152e+00    1.297728e+04
  2.478270e+00    9.269465e+03
  2.531388e+00    8.139340e+03
  2.584506e+00    8.866127e+03
  2.637625e+00    8.750923e+03
  2.690743e+00    9.075392e+03
  2.743861e+00    1.231882e+04
  2.796979e+00    8.251131e+03
  2.850097e+00    5.860643e+03
  2.903215e+00    5.433137e+03
  2.956334e+00    5.268481e+03
  3.009452e+00    5.369861e+03
  3.062570e+00    6.237627e+03
  3.115688e+00    7.910222e+03
  3.168806e+00    8.760153e+03
  3.221924e+00    9.925818e+03
  3.275043e+00    9.656768e+03
  3.328161e+00    6.250311e+03
  3.381279e+00    5.966798e+03
  3.434397e+00    5.367703e+03
  3.487515e+00    5.068685e+03
  3.540633e+00    5.001075e+03
  3.593751e+00    5.029237e+03
  3.646870e+00    5.989999e+03
  3.699988e+00    5.626091e+03
  3.753106e+00    4.997957e+03
  3.806224e+00    5.085249e+03
  3.859342e+00    5.734828e+03
  3.912460e+00    5.684371e+03
  3.965579e+00    5.209675e+03
  4.018697e+00    5.526528e+03
  4.071815e+00    7.463966e+03
  4.124933e+00    7.975085e+03
  4.178051e+00    8.522021e+03
  4.231169e+00    6.774364e+03
  4.284288e+00    6.335545e+03
  4.337406e+00    7.247222e+03
  4.390524e+00    7.923339e+03
  4.443642e+00    1.025334e+04
  4.496760e+00    1.187055e+04
  4.549878e+00    9.297507e+03
  4.602997e+00    6.195082e+03
  4.656115e+00    5.248489e+03
  4.709233e+00    5.381311e+03
  4.762351e+00    5.995301e+03
  4.815469e+00    5.684450e+03
  4.868587e+00    5.358767e+03
  4.921705e+00    5.726652e+03
  4.974824e+00    5.539375e+03
  5.027942e+00    5.627458e+03
  5.081060e+00    5.736564e+03
  5.134178e+00    5.253009e+03
  5.187296e+00    5.100529e+03
  5.240414e+00    5.224722e+03
  5.293533e+00    4.885685e+03
  5.346651e+00    4.531439e+03
  5.399769e+00    4.314766e+03
  5.452887e+00    4.407942e+03
  5.506005e+00    4.574557e+03
  5.559123e+00    4.084591e+03
  5.612242e+00    3.897196e+03
  5.665360e+00    3.831451e+03
  5.718478e+00    3.555685e+03
  5.771596e+00    3.514860e+03
  5.824714e+00    3.649847e+03
  5.877832e+00    3.678972e+03
  5.930951e+00    3.716863e+03
  5.984069e+00    3.850413e+03
  6.037187e+00    3.772530e+03
  6.090305e+00    3.765851e+03
  6.143423e+00    3.720269e+03
  6.196541e+00    3.743440e+03
  6.249660e+00    4.233146e+03
  6.302778e+00    4.305073e+03
  6.355896e+00    3.975771e+03
  6.409014e+00    4.074281e+03
  6.462132e+00    3.895923e+03
  6.515250e+00    3.839535e+03
  6.568368e+00    3.671865e+03
  6.621487e+00    3.679669e+03
  6.674605e+00    3.603808e+03
  6.727723e+00    3.464572e+03
  6.780841e+00    3.398520e+03
  6.833959e+00    3.454269e+03
  6.887077e+00    3.393962e+03
  6.940196e+00    3.356116e+03
  6.993314e+00    3.428954e+03
  7.046432e+00    3.431411e+03
  7.099550e+00    3.624637e+03
  7.152668e+00    3.661280e+03
  7.205786e+00    3.421868e+03
  7.258905e+00    3.335962e+03
  7.312023e+00    3.207642e+03
  7.365141e+00    3.147580e+03
  7.418259e+00    3.130921e+03
  7.471377e+00    3.139311e+03
  7.524495e+00    3.225010e+03
  7.577614e+00    3.239166e+03
  7.630732e+00    3.290222e+03
  7.683850e+00    3.489182e+03
  7.736968e+00    3.675884e+03
  7.790086e+00    3.687993e+03
  7.843204e+00    3.558824e+03
  7.896322e+00    3.282763e+03
  7.949441e+00    3.068085e+03
  8.002559e+00    3.010260e+03
  8.055677e+00    2.998704e+03
  8.108795e+00    3.019627e+03
  8.161913e+00    3.138120e+03
  8.215031e+00    3.264642e+03
  8.268150e+00    3.116595e+03
  8.321268e+00    3.010694e+03
  8.374386e+00    3.022577e+03
  8.427504e+00    2.983169e+03
  8.480622e+00    2.963292e+03
  8.533740e+00    2.982526e+03
  8.586859e+00    3.022555e+03
  8.639977e+00    3.004387e+03
  8.693095e+00    2.951221e+03
  8.746213e+00    2.927347e+03
  8.799331e+00    2.921105e+03
  8.852449e+00    2.877166e+03
  8.905568e+00    2.861522e+03
  8.958686e+00    2.908720e+03
  9.011804e+00    2.920836e+03
  9.064922e+00    2.855343e+03
  9.118040e+00    2.736574e+03
  9.171158e+00    2.715212e+03
  9.224276e+00    2.737263e+03
  9.277395e+00    2.703391e+03
  9.330513e+00    2.668067e+03
  9.383631e+00    2.669869e+03
  9.436749e+00    2.662015e+03
  9.489867e+00    2.671396e+03
  9.542985e+00    2.673137e+03
  9.596104e+00    2.664823e+03
  9.649222e+00    2.635069e+03
  9.702340e+00    2.601268e+03
  9.755458e+00    2.604738e+03
  9.808576e+00    2.583178e+03
  9.861694e+00    2.577767e+03
  9.914813e+00    2.585050e+03
  9.967931e+00    2.582901e+03
  1.002105e+01    2.556179e+03
  1.007417e+01    2.514156e+03
  1.012729e+01    2.471680e+03
  1.018040e+01    2.463197e+03
  1.023352e+01    2.460676e+03
  1.028664e+01    2.456463e+03
  1.033976e+01    2.464012e+03
  1.039288e+01    2.478434e+03
  1.044599e+01    2.451295e+03
  1.049911e+01    2.454970e+03
  1.055223e+01    2.439690e+03
  1.060535e+01    2.427724e+03
  1.065847e+01    2.417931e+03
  1.071158e+01    2.410625e+03
  1.076470e+01    2.400006e+03
  1.081782e+01    2.421973e+03
  1.087094e+01    2.427853e+03
  1.092406e+01    2.416967e+03
  1.097718e+01    2.404139e+03
  1.103029e+01    2.373086e+03
  1.108341e+01    2.359508e+03
  1.113653e+01    2.351896e+03
  1.118965e+01    2.334626e+03
  1.124277e+01    2.324510e+03
  1.129588e+01    2.318593e+03
  1.134900e+01    2.311308e+03
  1.140212e+01    2.297492e+03
  1.145524e+01    2.279775e+03
  1.150836e+01    2.274084e+03
  1.156148e+01    2.275098e+03
  1.161459e+01    2.285352e+03
  1.166771e+01    2.275769e+03
  1.172083e+01    2.289056e+03
  1.177395e+01    2.284270e+03
  1.182707e+01    2.285128e+03
  1.188018e+01    2.295395e+03
  1.193330e+01    2.285644e+03
  1.198642e+01    2.269644e+03
  1.203954e+01    2.243526e+03
  1.209266e+01    2.232280e+03
  1.214578e+01    2.226418e+03
  1.219889e+01    2.228869e+03
  1.225201e+01    2.230844e+03
  1.230513e+01    2.240418e+03
  1.235825e+01    2.244937e+03
  1.241137e+01    2.227863e+03
  1.246448e+01    2.227934e+03
  1.251760e+01    2.233593e+03
  1.257072e+01    2.228306e+03
  1.262384e+01    2.224802e+03
  1.267696e+01    2.212258e+03
  1.273008e+01    2.196729e+03
  1.278319e+01    2.182074e+03
  1.283631e+01    2.167294e+03
  1.288943e+01    2.159318e+03
  1.294255e+01    2.144488e+03
  1.299567e+01    2.141978e+03
  1.304878e+01    2.130644e+03
  1.310190e+01    2.128124e+03
  1.315502e+01    2.126628e+03
  1.320814e+01    2.101382e+03
  1.326126e+01    2.068906e+03
  1.331437e+01    2.051341e+03
  1.336749e+01    2.040367e+03
  1.342061e+01    2.023891e+03
  1.347373e+01    2.049050e+03
  1.352685e+01    2.055212e+03
  1.357997e+01    2.046771e+03
  1.363308e+01    2.036958e+03
  1.368620e+01    2.025542e+03
  1.373932e+01    2.012880e+03
  1.379244e+01    2.003429e+03
  1.384556e+01    1.998277e+03
  1.389867e+01    1.993218e+03
  1.395179e+01    1.986416e+03
  1.400491e+01    1.984072e+03
  1.405803e+01    1.980572e+03
  1.411115e+01    1.973675e+03
  1.416427e+01    1.967323e+03
  1.421738e+01    1.964872e+03
  1.427050e+01    1.958150e+03
  1.432362e+01    1.961985e+03
  1.437674e+01    1.960877e+03
  1.442986e+01    1.948765e+03
  1.448297e+01    1.940941e+03
  1.453609e+01    1.933594e+03
  1.458921e+01    1.922752e+03
  1.464233e+01    1.919316e+03
  1.469545e+01    1.913623e+03
  1.474857e+01    1.898448e+03
  1.480168e+01    1.913009e+03
  1.485480e+01    1.907983e+03
  1.490792e+01    1.902710e+03
  1.496104e+01    1.894208e+03
  1.501416e+01    1.889923e+03
  1.506727e+01    1.884768e+03
  1.512039e+01    1.880940e+03
  1.517351e+01    1.893281e+03
  1.522663e+01    1.906156e+03
  1.527975e+01    1.901251e+03
  1.533286e+01    1.886801e+03
  1.538598e+01    1.875418e+03
  1.543910e+01    1.864768e+03
  1.549222e+01    1.862174e+03
  1.554534e+01    1.864077e+03
  1.559846e+01    1.862374e+03
  1.565157e+01    1.855009e+03
  1.570469e+01    1.846932e+03
  1.575781e+01    1.841547e+03
  1.581093e+01    1.839016e+03
  1.586405e+01    1.836544e+03
  1.591716e+01    1.829599e+03
  1.597028e+01    1.823294e+03
  1.602340e+01    1.807831e+03
  1.607652e+01    1.795943e+03
  1.612964e+01    1.773980e+03
  1.618276e+01    1.761533e+03
  1.623587e+01    1.765964e+03
  1.628899e+01    1.782040e+03
  1.634211e+01    1.779650e+03
  1.639523e+01    1.775848e+03
  1.644835e+01    1.778459e+03
  1.650146e+01    1.773358e+03
  1.655458e+01    1.771382e+03
  1.660770e+01    1.766569e+03
  1.666082e+01    1.760299e+03
  1.671394e+01    1.759100e+03
  1.676706e+01    1.755971e+03
  1.682017e+01    1.768707e+03
  1.687329e+01    1.756450e+03
  1.692641e+01    1.750760e+03
  1.697953e+01    1.745927e+03
  1.703265e+01    1.742122e+03
  1.708576e+01    1.739544e+03
  1.713888e+01    1.731042e+03
  1.719200e+01    1.730179e+03
  1.724512e+01    1.722024e+03
  1.729824e+01    1.721998e+03
  1.735136e+01    1.716113e+03
  1.740447e+01    1.693012e+03
  1.745759e+01    1.700853e+03
  1.751071e+01    1.702578e+03
  1.756383e+01    1.712083e+03
  1.761695e+01    1.695070e+03
  1.767006e+01    1.691775e+03
  1.772318e+01    1.682487e+03
  1.777630e+01    1.682188e+03
  1.782942e+01    1.675098e+03
  1.788254e+01    1.671221e+03
  1.793565e+01    1.667352e+03
  1.798877e+01    1.665241e+03
  1.804189e+01    1.657840e+03
  1.809501e+01    1.654425e+03
  1.814813e+01    1.651716e+03
  1.820125e+01    1.644237e+03
  1.825436e+01    1.651760e+03
  1.830748e+01    1.645965e+03
  1.836060e+01    1.639964e+03
  1.841372e+01    1.638618e+03
  1.846684e+01    1.633648e+03
  1.851995e+01    1.613610e+03
  1.857307e+01    1.598703e+03
  1.862619e+01    1.589045e+03
  1.867931e+01    1.584420e+03
  1.873243e+01    1.604809e+03
  1.878555e+01    1.607057e+03
  1.883866e+01    1.607624e+03
  1.889178e+01    1.605709e+03
  1.894490e+01    1.616925e+03
  1.899802e+01    1.606538e+03
  1.905114e+01    1.601807e+03
  1.910425e+01    1.596355e+03
  1.915737e+01    1.592302e+03
  1.921049e+01    1.587620e+03
  1.926361e+01    1.583907e+03
  1.931673e+01    1.581982e+03
  1.936985e+01    1.579252e+03
  1.942296e+01    1.575547e+03
  1.947608e+01    1.574894e+03
  1.952920e+01    1.570727e+03
  1.958232e+01    1.571836e+03
  1.963544e+01    1.577582e+03
  1.968855e+01    1.562864e+03
  1.974167e+01    1.550037e+03
  1.979479e+01    1.555666e+03
  1.984791e+01    1.553292e+03
  1.990103e+01    1.549956e+03
  1.995414e+01    1.550289e+03
  2.000726e+01    1.546181e+03
  2.006038e+01    1.541736e+03
  2.011350e+01    1.537856e+03
  2.016662e+01    1.532554e+03
  2.021974e+01    1.535277e+03
  2.027285e+01    1.542929e+03
  2.032597e+01    1.526111e+03
  2.037909e+01    1.522317e+03
  2.043221e+01    1.517355e+03
  2.048533e+01    1.515670e+03
  2.053844e+01    1.514686e+03
  2.059156e+01    1.509076e+03
  2.064468e+01    1.506027e+03
  2.069780e+01    1.485563e+03
  2.075092e+01    1.460522e+03
  2.080404e+01    1.445523e+03
  2.085715e+01    1.466414e+03
  2.091027e+01    1.492232e+03
  2.096339e+01    1.500605e+03
  2.101651e+01    1.505531e+03
  2.106963e+01    1.510880e+03
  2.112274e+01    1.514385e+03
  2.117586e+01    1.515009e+03
  2.122898e+01    1.517242e+03
  2.128210e+01    1.515116e+03
  2.133522e+01    1.516405e+03
  2.138834e+01    1.512492e+03
  2.144145e+01    1.513779e+03
  2.149457e+01    1.513741e+03
  2.154769e+01    1.512858e+03
  2.160081e+01    1.512181e+03
  2.165393e+01    1.512628e+03
  2.170704e+01    1.512810e+03
  2.176016e+01    1.502448e+03
  2.181328e+01    1.511594e+03
  2.186640e+01    1.513220e+03
  2.191952e+01    1.511002e+03
  2.197263e+01    1.507651e+03
  2.202575e+01    1.506056e+03
  2.207887e+01    1.505288e+03
  2.213199e+01    1.503313e+03
  2.218511e+01    1.501863e+03
  2.223823e+01    1.500592e+03
  2.229134e+01    1.499382e+03
  2.234446e+01    1.498275e+03
  2.239758e+01    1.499687e+03
  2.245070e+01    1.497410e+03
  2.250382e+01    1.497943e+03
  2.255693e+01    1.495319e+03
  2.261005e+01    1.475093e+03
  2.266317e+01    1.462827e+03
  2.271629e+01    1.453944e+03
  2.276941e+01    1.443120e+03
  2.282253e+01    1.435480e+03
  2.287564e+01    1.432573e+03
  2.292876e+01    1.427257e+03
  2.298188e+01    1.424806e+03
  2.303500e+01    1.423570e+03
  2.308812e+01    1.419388e+03
  2.314123e+01    1.417676e+03
  2.319435e+01    1.413674e+03
  2.324747e+01    1.406808e+03
  2.330059e+01    1.401914e+03
  2.335371e+01    1.400643e+03
  2.340683e+01    1.395841e+03
  2.345994e+01    1.391975e+03
  2.351306e+01    1.388960e+03
  2.356618e+01    1.384719e+03
  2.361930e+01    1.378474e+03
  2.367242e+01    1.372767e+03
  2.372553e+01    1.368030e+03
  2.377865e+01    1.362096e+03
  2.383177e+01    1.356213e+03
  2.388489e+01    1.353478e+03
  2.393801e+01    1.348589e+03
  2.399113e+01    1.344903e+03
  2.404424e+01    1.346764e+03
  2.409736e+01    1.342442e+03
  2.415048e+01    1.340203e+03
  2.420360e+01    1.335648e+03
  2.425672e+01    1.331948e+03
  2.430983e+01    1.329794e+03
  2.436295e+01    1.327927e+03
  2.441607e+01    1.325946e+03
  2.446919e+01    1.323379e+03
  2.452231e+01    1.322283e+03
  2.457542e+01    1.319681e+03
  2.462854e+01    1.317750e+03
  2.468166e+01    1.313303e+03
  2.473478e+01    1.309510e+03
  2.478790e+01    1.305205e+03
  2.484102e+01    1.299079e+03
  2.489413e+01    1.296692e+03
  2.494725e+01    1.290863e+03
  2.500037e+01    1.288815e+03
  2.505349e+01    1.282768e+03
  2.510661e+01    1.275006e+03
  2.515972e+01    1.273000e+03
  2.521284e+01    1.270361e+03
  2.526596e+01    1.270250e+03
  2.531908e+01    1.266202e+03
  2.537220e+01    1.266132e+03
  2.542532e+01    1.261207e+03
  2.547843e+01    1.258657e+03
  2.553155e+01    1.253038e+03
  2.558467e+01    1.248075e+03
  2.563779e+01    1.238304e+03
  2.569091e+01    1.234610e+03
  2.574402e+01    1.226666e+03
  2.579714e+01    1.220151e+03
  2.585026e+01    1.211365e+03
  2.590338e+01    1.207250e+03
  2.595650e+01    1.200667e+03
  2.600962e+01    1.199768e+03
  2.606273e+01    1.202526e+03
  2.611585e+01    1.199066e+03
  2.616897e+01    1.196886e+03
  2.622209e+01    1.196213e+03
  2.627521e+01    1.188151e+03
  2.632832e+01    1.184446e+03
  2.638144e+01    1.181478e+03
  2.643456e+01    1.171531e+03
  2.648768e+01    1.156733e+03
  2.654080e+01    1.150511e+03
