# == pyFAI calibration ==
# Distance Sample to Detector: 0.2946421923531691 m
# PONI: 2.875e-01, 2.439e-01 m
# Rotations: -0.010990 -0.009181 0.000003 rad
# 
# == Fit2d calibration ==
# Distance Sample-beamCenter: 294.672 mm
# Center: x=1436.809, y=1655.851 pix
# Tilt: 0.820 deg  TiltPlanRot: -39.874 deg
# 
# Detector Pilatus 2M	 PixelSize= 1.720e-04, 1.720e-04 m
#    Detector has a mask: True 
#    Detector has a dark current: False 
#    detector has a flat field: False 
# 
# Wavelength: 2.0732883349524408e-11 m
# Mask applied: from detector
# Dark current applied: False
# Flat field applied: False
# Polarization factor: None
# Normalization factor: 1.0
# --> /gpfs/current/raw/FMue_3/FMue_3_20231024_175355_00040.dat
#        q_A^-1             I 
  3.483473e-02             nan
  8.795289e-02             nan
  1.410711e-01             nan
  1.941892e-01             nan
  2.473074e-01             nan
  3.004255e-01             nan
  3.535437e-01             nan
  4.066619e-01    9.855549e+03
  4.597800e-01    9.387340e+03
  5.128982e-01    8.388296e+03
  5.660163e-01    7.974198e+03
  6.191345e-01    7.930439e+03
  6.722527e-01    8.023704e+03
  7.253708e-01    8.329893e+03
  7.784890e-01    1.300214e+04
  8.316071e-01    2.695078e+04
  8.847253e-01    1.713851e+04
  9.378435e-01    9.396334e+03
  9.909616e-01    9.946995e+03
  1.044080e+00    1.009684e+04
  1.097198e+00    9.839165e+03
  1.150316e+00    1.020960e+04
  1.203434e+00    1.090997e+04
  1.256552e+00    1.192236e+04
  1.309671e+00    1.272651e+04
  1.362789e+00    1.363234e+04
  1.415907e+00    1.431542e+04
  1.469025e+00    1.454260e+04
  1.522143e+00    1.446935e+04
  1.575261e+00    1.398211e+04
  1.628380e+00    1.546713e+04
  1.681498e+00    1.733009e+04
  1.734616e+00    1.260768e+04
  1.787734e+00    1.043754e+04
  1.840852e+00    9.668593e+03
  1.893970e+00    9.139679e+03
  1.947089e+00    9.042661e+03
  2.000207e+00    8.670442e+03
  2.053325e+00    7.968710e+03
  2.106443e+00    7.740771e+03
  2.159561e+00    7.877092e+03
  2.212679e+00    8.050779e+03
  2.265797e+00    8.272064e+03
  2.318916e+00    8.155816e+03
  2.372034e+00    8.793121e+03
  2.425152e+00    1.304111e+04
  2.478270e+00    9.205439e+03
  2.531388e+00    8.059472e+03
  2.584506e+00    8.802788e+03
  2.637625e+00    8.672249e+03
  2.690743e+00    9.062167e+03
  2.743861e+00    1.236191e+04
  2.796979e+00    8.154266e+03
  2.850097e+00    5.812473e+03
  2.903215e+00    5.387768e+03
  2.956334e+00    5.218651e+03
  3.009452e+00    5.334544e+03
  3.062570e+00    6.196595e+03
  3.115688e+00    7.834431e+03
  3.168806e+00    8.706488e+03
  3.221924e+00    1.013633e+04
  3.275043e+00    9.647100e+03
  3.328161e+00    6.177515e+03
  3.381279e+00    5.919947e+03
  3.434397e+00    5.316966e+03
  3.487515e+00    5.024840e+03
  3.540633e+00    4.956182e+03
  3.593751e+00    5.019884e+03
  3.646870e+00    6.050103e+03
  3.699988e+00    5.551683e+03
  3.753106e+00    4.938288e+03
  3.806224e+00    5.061112e+03
  3.859342e+00    5.759429e+03
  3.912460e+00    5.609166e+03
  3.965579e+00    5.150818e+03
  4.018697e+00    5.477082e+03
  4.071815e+00    7.424810e+03
  4.124933e+00    7.928868e+03
  4.178051e+00    8.526325e+03
  4.231169e+00    6.717941e+03
  4.284288e+00    6.324534e+03
  4.337406e+00    7.219421e+03
  4.390524e+00    7.858147e+03
  4.443642e+00    1.019270e+04
  4.496760e+00    1.178669e+04
  4.549878e+00    9.285174e+03
  4.602997e+00    6.149417e+03
  4.656115e+00    5.199336e+03
  4.709233e+00    5.342703e+03
  4.762351e+00    5.966245e+03
  4.815469e+00    5.647391e+03
  4.868587e+00    5.314496e+03
  4.921705e+00    5.704919e+03
  4.974824e+00    5.524807e+03
  5.027942e+00    5.665478e+03
  5.081060e+00    5.695659e+03
  5.134178e+00    5.199695e+03
  5.187296e+00    5.078650e+03
  5.240414e+00    5.217678e+03
  5.293533e+00    4.865468e+03
  5.346651e+00    4.492625e+03
  5.399769e+00    4.278670e+03
  5.452887e+00    4.385518e+03
  5.506005e+00    4.552130e+03
  5.559123e+00    4.052469e+03
  5.612242e+00    3.884309e+03
  5.665360e+00    3.809180e+03
  5.718478e+00    3.526863e+03
  5.771596e+00    3.507523e+03
  5.824714e+00    3.644203e+03
  5.877832e+00    3.647050e+03
  5.930951e+00    3.696823e+03
  5.984069e+00    3.823909e+03
  6.037187e+00    3.745758e+03
  6.090305e+00    3.741773e+03
  6.143423e+00    3.699278e+03
  6.196541e+00    3.711769e+03
  6.249660e+00    4.207629e+03
  6.302778e+00    4.282103e+03
  6.355896e+00    3.952208e+03
  6.409014e+00    4.059535e+03
  6.462132e+00    3.905483e+03
  6.515250e+00    3.820388e+03
  6.568368e+00    3.646920e+03
  6.621487e+00    3.666209e+03
  6.674605e+00    3.593117e+03
  6.727723e+00    3.440422e+03
  6.780841e+00    3.371082e+03
  6.833959e+00    3.436354e+03
  6.887077e+00    3.365261e+03
  6.940196e+00    3.338820e+03
  6.993314e+00    3.407523e+03
  7.046432e+00    3.408790e+03
  7.099550e+00    3.621500e+03
  7.152668e+00    3.659982e+03
  7.205786e+00    3.401969e+03
  7.258905e+00    3.317205e+03
  7.312023e+00    3.186802e+03
  7.365141e+00    3.132222e+03
  7.418259e+00    3.107726e+03
  7.471377e+00    3.117337e+03
  7.524495e+00    3.208047e+03
  7.577614e+00    3.220863e+03
  7.630732e+00    3.279357e+03
  7.683850e+00    3.475818e+03
  7.736968e+00    3.649340e+03
  7.790086e+00    3.671936e+03
  7.843204e+00    3.555433e+03
  7.896322e+00    3.256808e+03
  7.949441e+00    3.049548e+03
  8.002559e+00    2.987020e+03
  8.055677e+00    2.977231e+03
  8.108795e+00    3.002712e+03
  8.161913e+00    3.124482e+03
  8.215031e+00    3.259914e+03
  8.268150e+00    3.097437e+03
  8.321268e+00    2.992588e+03
  8.374386e+00    3.007779e+03
  8.427504e+00    2.964848e+03
  8.480622e+00    2.943748e+03
  8.533740e+00    2.971574e+03
  8.586859e+00    3.007065e+03
  8.639977e+00    2.992052e+03
  8.693095e+00    2.935578e+03
  8.746213e+00    2.911819e+03
  8.799331e+00    2.903123e+03
  8.852449e+00    2.857884e+03
  8.905568e+00    2.843303e+03
  8.958686e+00    2.896974e+03
  9.011804e+00    2.903509e+03
  9.064922e+00    2.837534e+03
  9.118040e+00    2.723018e+03
  9.171158e+00    2.704550e+03
  9.224276e+00    2.727635e+03
  9.277395e+00    2.688781e+03
  9.330513e+00    2.654135e+03
  9.383631e+00    2.659482e+03
  9.436749e+00    2.641871e+03
  9.489867e+00    2.655243e+03
  9.542985e+00    2.659550e+03
  9.596104e+00    2.656724e+03
  9.649222e+00    2.617696e+03
  9.702340e+00    2.587331e+03
  9.755458e+00    2.594696e+03
  9.808576e+00    2.567807e+03
  9.861694e+00    2.562540e+03
  9.914813e+00    2.568534e+03
  9.967931e+00    2.569114e+03
  1.002105e+01    2.543158e+03
  1.007417e+01    2.502248e+03
  1.012729e+01    2.458801e+03
  1.018040e+01    2.447460e+03
  1.023352e+01    2.447563e+03
  1.028664e+01    2.443009e+03
  1.033976e+01    2.451465e+03
  1.039288e+01    2.466358e+03
  1.044599e+01    2.438032e+03
  1.049911e+01    2.444379e+03
  1.055223e+01    2.431008e+03
  1.060535e+01    2.416947e+03
  1.065847e+01    2.405756e+03
  1.071158e+01    2.398387e+03
  1.076470e+01    2.386368e+03
  1.081782e+01    2.410754e+03
  1.087094e+01    2.418612e+03
  1.092406e+01    2.405215e+03
  1.097718e+01    2.393042e+03
  1.103029e+01    2.363151e+03
  1.108341e+01    2.348262e+03
  1.113653e+01    2.339078e+03
  1.118965e+01    2.320972e+03
  1.124277e+01    2.312203e+03
  1.129588e+01    2.307449e+03
  1.134900e+01    2.302258e+03
  1.140212e+01    2.286924e+03
  1.145524e+01    2.266921e+03
  1.150836e+01    2.263313e+03
  1.156148e+01    2.264766e+03
  1.161459e+01    2.276457e+03
  1.166771e+01    2.263314e+03
  1.172083e+01    2.277580e+03
  1.177395e+01    2.270293e+03
  1.182707e+01    2.272380e+03
  1.188018e+01    2.282695e+03
  1.193330e+01    2.273736e+03
  1.198642e+01    2.257408e+03
  1.203954e+01    2.231537e+03
  1.209266e+01    2.223606e+03
  1.214578e+01    2.214833e+03
  1.219889e+01    2.216043e+03
  1.225201e+01    2.221556e+03
  1.230513e+01    2.232251e+03
  1.235825e+01    2.235535e+03
  1.241137e+01    2.217169e+03
  1.246448e+01    2.216866e+03
  1.251760e+01    2.223341e+03
  1.257072e+01    2.217722e+03
  1.262384e+01    2.217990e+03
  1.267696e+01    2.200615e+03
  1.273008e+01    2.186357e+03
  1.278319e+01    2.172098e+03
  1.283631e+01    2.156356e+03
  1.288943e+01    2.148495e+03
  1.294255e+01    2.135305e+03
  1.299567e+01    2.131083e+03
  1.304878e+01    2.122031e+03
  1.310190e+01    2.118123e+03
  1.315502e+01    2.115814e+03
  1.320814e+01    2.090464e+03
  1.326126e+01    2.059360e+03
  1.331437e+01    2.042015e+03
  1.336749e+01    2.030235e+03
  1.342061e+01    2.014272e+03
  1.347373e+01    2.041999e+03
  1.352685e+01    2.045047e+03
  1.357997e+01    2.034931e+03
  1.363308e+01    2.025690e+03
  1.368620e+01    2.015567e+03
  1.373932e+01    2.001837e+03
  1.379244e+01    1.993487e+03
  1.384556e+01    1.988833e+03
  1.389867e+01    1.982497e+03
  1.395179e+01    1.976033e+03
  1.400491e+01    1.975051e+03
  1.405803e+01    1.970981e+03
  1.411115e+01    1.963239e+03
  1.416427e+01    1.957822e+03
  1.421738e+01    1.955676e+03
  1.427050e+01    1.949193e+03
  1.432362e+01    1.949801e+03
  1.437674e+01    1.952164e+03
  1.442986e+01    1.942408e+03
  1.448297e+01    1.933565e+03
  1.453609e+01    1.923207e+03
  1.458921e+01    1.912537e+03
  1.464233e+01    1.911161e+03
  1.469545e+01    1.905310e+03
  1.474857e+01    1.889912e+03
  1.480168e+01    1.903229e+03
  1.485480e+01    1.901103e+03
  1.490792e+01    1.892729e+03
  1.496104e+01    1.885201e+03
  1.501416e+01    1.880712e+03
  1.506727e+01    1.876074e+03
  1.512039e+01    1.870205e+03
  1.517351e+01    1.881567e+03
  1.522663e+01    1.895606e+03
  1.527975e+01    1.892935e+03
  1.533286e+01    1.875835e+03
  1.538598e+01    1.864600e+03
  1.543910e+01    1.855442e+03
  1.549222e+01    1.852116e+03
  1.554534e+01    1.855367e+03
  1.559846e+01    1.854464e+03
  1.565157e+01    1.844975e+03
  1.570469e+01    1.839236e+03
  1.575781e+01    1.833878e+03
  1.581093e+01    1.830540e+03
  1.586405e+01    1.827470e+03
  1.591716e+01    1.821374e+03
  1.597028e+01    1.814234e+03
  1.602340e+01    1.798738e+03
  1.607652e+01    1.788394e+03
  1.612964e+01    1.764998e+03
  1.618276e+01    1.754836e+03
  1.623587e+01    1.756991e+03
  1.628899e+01    1.773316e+03
  1.634211e+01    1.771357e+03
  1.639523e+01    1.768103e+03
  1.644835e+01    1.770881e+03
  1.650146e+01    1.764108e+03
  1.655458e+01    1.764099e+03
  1.660770e+01    1.758938e+03
  1.666082e+01    1.752616e+03
  1.671394e+01    1.751555e+03
  1.676706e+01    1.746158e+03
  1.682017e+01    1.760062e+03
  1.687329e+01    1.748506e+03
  1.692641e+01    1.742010e+03
  1.697953e+01    1.738441e+03
  1.703265e+01    1.734784e+03
  1.708576e+01    1.733330e+03
  1.713888e+01    1.724318e+03
  1.719200e+01    1.722263e+03
  1.724512e+01    1.713825e+03
  1.729824e+01    1.714351e+03
  1.735136e+01    1.709286e+03
  1.740447e+01    1.685573e+03
  1.745759e+01    1.692548e+03
  1.751071e+01    1.693127e+03
  1.756383e+01    1.705207e+03
  1.761695e+01    1.687260e+03
  1.767006e+01    1.683150e+03
  1.772318e+01    1.673963e+03
  1.777630e+01    1.673813e+03
  1.782942e+01    1.664647e+03
  1.788254e+01    1.662701e+03
  1.793565e+01    1.659892e+03
  1.798877e+01    1.656680e+03
  1.804189e+01    1.649656e+03
  1.809501e+01    1.645735e+03
  1.814813e+01    1.642595e+03
  1.820125e+01    1.636750e+03
  1.825436e+01    1.643570e+03
  1.830748e+01    1.638017e+03
  1.836060e+01    1.632891e+03
  1.841372e+01    1.630632e+03
  1.846684e+01    1.626642e+03
  1.851995e+01    1.606881e+03
  1.857307e+01    1.591530e+03
  1.862619e+01    1.580499e+03
  1.867931e+01    1.577183e+03
  1.873243e+01    1.597951e+03
  1.878555e+01    1.599827e+03
  1.883866e+01    1.599627e+03
  1.889178e+01    1.598033e+03
  1.894490e+01    1.609372e+03
  1.899802e+01    1.599616e+03
  1.905114e+01    1.593940e+03
  1.910425e+01    1.588628e+03
  1.915737e+01    1.585474e+03
  1.921049e+01    1.578797e+03
  1.926361e+01    1.577035e+03
  1.931673e+01    1.573489e+03
  1.936985e+01    1.570916e+03
  1.942296e+01    1.568936e+03
  1.947608e+01    1.568943e+03
  1.952920e+01    1.562342e+03
  1.958232e+01    1.564251e+03
  1.963544e+01    1.568998e+03
  1.968855e+01    1.554700e+03
  1.974167e+01    1.541846e+03
  1.979479e+01    1.548093e+03
  1.984791e+01    1.546185e+03
  1.990103e+01    1.544614e+03
  1.995414e+01    1.541672e+03
  2.000726e+01    1.538701e+03
  2.006038e+01    1.535289e+03
  2.011350e+01    1.531190e+03
  2.016662e+01    1.526801e+03
  2.021974e+01    1.527995e+03
  2.027285e+01    1.534782e+03
  2.032597e+01    1.517745e+03
  2.037909e+01    1.515134e+03
  2.043221e+01    1.509181e+03
  2.048533e+01    1.507813e+03
  2.053844e+01    1.506482e+03
  2.059156e+01    1.502871e+03
  2.064468e+01    1.498294e+03
  2.069780e+01    1.478793e+03
  2.075092e+01    1.454913e+03
  2.080404e+01    1.438540e+03
  2.085715e+01    1.459336e+03
  2.091027e+01    1.487253e+03
  2.096339e+01    1.494157e+03
  2.101651e+01    1.499095e+03
  2.106963e+01    1.501725e+03
  2.112274e+01    1.506058e+03
  2.117586e+01    1.507728e+03
  2.122898e+01    1.510478e+03
  2.128210e+01    1.507672e+03
  2.133522e+01    1.507780e+03
  2.138834e+01    1.506220e+03
  2.144145e+01    1.506958e+03
  2.149457e+01    1.508062e+03
  2.154769e+01    1.505910e+03
  2.160081e+01    1.503539e+03
  2.165393e+01    1.506953e+03
  2.170704e+01    1.505977e+03
  2.176016e+01    1.495384e+03
  2.181328e+01    1.502883e+03
  2.186640e+01    1.504369e+03
  2.191952e+01    1.503127e+03
  2.197263e+01    1.500799e+03
  2.202575e+01    1.497414e+03
  2.207887e+01    1.497651e+03
  2.213199e+01    1.496199e+03
  2.218511e+01    1.494633e+03
  2.223823e+01    1.494564e+03
  2.229134e+01    1.493352e+03
  2.234446e+01    1.492414e+03
  2.239758e+01    1.490227e+03
  2.245070e+01    1.488555e+03
  2.250382e+01    1.491434e+03
  2.255693e+01    1.487207e+03
  2.261005e+01    1.467865e+03
  2.266317e+01    1.454912e+03
  2.271629e+01    1.447360e+03
  2.276941e+01    1.437766e+03
  2.282253e+01    1.428781e+03
  2.287564e+01    1.425938e+03
  2.292876e+01    1.419406e+03
  2.298188e+01    1.416787e+03
  2.303500e+01    1.415972e+03
  2.308812e+01    1.412103e+03
  2.314123e+01    1.408789e+03
  2.319435e+01    1.405285e+03
  2.324747e+01    1.398253e+03
  2.330059e+01    1.394296e+03
  2.335371e+01    1.392299e+03
  2.340683e+01    1.389663e+03
  2.345994e+01    1.385311e+03
  2.351306e+01    1.382063e+03
  2.356618e+01    1.378122e+03
  2.361930e+01    1.371867e+03
  2.367242e+01    1.366664e+03
  2.372553e+01    1.360442e+03
  2.377865e+01    1.356789e+03
  2.383177e+01    1.350635e+03
  2.388489e+01    1.347065e+03
  2.393801e+01    1.343181e+03
  2.399113e+01    1.342539e+03
  2.404424e+01    1.339732e+03
  2.409736e+01    1.336922e+03
  2.415048e+01    1.333203e+03
  2.420360e+01    1.329431e+03
  2.425672e+01    1.325811e+03
  2.430983e+01    1.323172e+03
  2.436295e+01    1.321494e+03
  2.441607e+01    1.317767e+03
  2.446919e+01    1.318287e+03
  2.452231e+01    1.316093e+03
  2.457542e+01    1.311155e+03
  2.462854e+01    1.309985e+03
  2.468166e+01    1.308194e+03
  2.473478e+01    1.303740e+03
  2.478790e+01    1.296170e+03
  2.484102e+01    1.292873e+03
  2.489413e+01    1.287471e+03
  2.494725e+01    1.286342e+03
  2.500037e+01    1.278799e+03
  2.505349e+01    1.276264e+03
  2.510661e+01    1.271970e+03
  2.515972e+01    1.267794e+03
  2.521284e+01    1.267832e+03
  2.526596e+01    1.265812e+03
  2.531908e+01    1.257513e+03
  2.537220e+01    1.256869e+03
  2.542532e+01    1.256344e+03
  2.547843e+01    1.252850e+03
  2.553155e+01    1.248943e+03
  2.558467e+01    1.239570e+03
  2.563779e+01    1.231038e+03
  2.569091e+01    1.227346e+03
  2.574402e+01    1.217570e+03
  2.579714e+01    1.211592e+03
  2.585026e+01    1.204951e+03
  2.590338e+01    1.196363e+03
  2.595650e+01    1.194480e+03
  2.600962e+01    1.191714e+03
  2.606273e+01    1.193106e+03
  2.611585e+01    1.188625e+03
  2.616897e+01    1.194170e+03
  2.622209e+01    1.195281e+03
  2.627521e+01    1.180838e+03
  2.632832e+01    1.177887e+03
  2.638144e+01    1.176366e+03
  2.643456e+01    1.177505e+03
  2.648768e+01    1.156892e+03
  2.654080e+01    1.131999e+03
