# == pyFAI calibration ==
# Distance Sample to Detector: 0.2946421923531691 m
# PONI: 2.875e-01, 2.439e-01 m
# Rotations: -0.010990 -0.009181 0.000003 rad
# 
# == Fit2d calibration ==
# Distance Sample-beamCenter: 294.672 mm
# Center: x=1436.809, y=1655.851 pix
# Tilt: 0.820 deg  TiltPlanRot: -39.874 deg
# 
# Detector Pilatus 2M	 PixelSize= 1.720e-04, 1.720e-04 m
#    Detector has a mask: True 
#    Detector has a dark current: False 
#    detector has a flat field: False 
# 
# Wavelength: 2.0732883349524408e-11 m
# Mask applied: from detector
# Dark current applied: False
# Flat field applied: False
# Polarization factor: None
# Normalization factor: 1.0
# --> /gpfs/current/raw/FMue_3/FMue_3_20231024_175355_00053.dat
#        q_A^-1             I 
  3.483473e-02             nan
  8.795289e-02             nan
  1.410711e-01             nan
  1.941892e-01             nan
  2.473074e-01             nan
  3.004255e-01             nan
  3.535437e-01             nan
  4.066619e-01    1.130538e+04
  4.597800e-01    1.054254e+04
  5.128982e-01    9.277279e+03
  5.660163e-01    8.692656e+03
  6.191345e-01    8.563246e+03
  6.722527e-01    8.631240e+03
  7.253708e-01    9.047309e+03
  7.784890e-01    1.084960e+04
  8.316071e-01    1.641641e+04
  8.847253e-01    1.658542e+04
  9.378435e-01    1.328977e+04
  9.909616e-01    1.167420e+04
  1.044080e+00    1.069314e+04
  1.097198e+00    1.017507e+04
  1.150316e+00    1.044252e+04
  1.203434e+00    1.112090e+04
  1.256552e+00    1.211657e+04
  1.309671e+00    1.285653e+04
  1.362789e+00    1.377064e+04
  1.415907e+00    1.445277e+04
  1.469025e+00    1.469201e+04
  1.522143e+00    1.464051e+04
  1.575261e+00    1.417434e+04
  1.628380e+00    1.405525e+04
  1.681498e+00    1.413333e+04
  1.734616e+00    1.255913e+04
  1.787734e+00    1.106881e+04
  1.840852e+00    1.015968e+04
  1.893970e+00    9.467439e+03
  1.947089e+00    9.226791e+03
  2.000207e+00    8.787845e+03
  2.053325e+00    8.062013e+03
  2.106443e+00    7.841899e+03
  2.159561e+00    7.982247e+03
  2.212679e+00    8.169656e+03
  2.265797e+00    8.442575e+03
  2.318916e+00    8.474218e+03
  2.372034e+00    8.916615e+03
  2.425152e+00    1.064266e+04
  2.478270e+00    9.343745e+03
  2.531388e+00    8.967843e+03
  2.584506e+00    9.359129e+03
  2.637625e+00    9.246895e+03
  2.690743e+00    9.178318e+03
  2.743861e+00    9.868479e+03
  2.796979e+00    8.003352e+03
  2.850097e+00    6.345627e+03
  2.903215e+00    5.842409e+03
  2.956334e+00    5.644336e+03
  3.009452e+00    5.689975e+03
  3.062570e+00    6.366611e+03
  3.115688e+00    8.217554e+03
  3.168806e+00    9.051791e+03
  3.221924e+00    8.498976e+03
  3.275043e+00    7.545068e+03
  3.328161e+00    6.263787e+03
  3.381279e+00    6.118123e+03
  3.434397e+00    5.588399e+03
  3.487515e+00    5.301966e+03
  3.540633e+00    5.217756e+03
  3.593751e+00    5.136640e+03
  3.646870e+00    5.348590e+03
  3.699988e+00    5.343162e+03
  3.753106e+00    5.247709e+03
  3.806224e+00    5.291590e+03
  3.859342e+00    5.426630e+03
  3.912460e+00    5.476921e+03
  3.965579e+00    5.452972e+03
  4.018697e+00    5.845688e+03
  4.071815e+00    7.269597e+03
  4.124933e+00    8.174838e+03
  4.178051e+00    7.776377e+03
  4.231169e+00    6.824970e+03
  4.284288e+00    6.550603e+03
  4.337406e+00    7.026379e+03
  4.390524e+00    7.711006e+03
  4.443642e+00    9.955707e+03
  4.496760e+00    1.199171e+04
  4.549878e+00    9.208952e+03
  4.602997e+00    6.159209e+03
  4.656115e+00    5.415331e+03
  4.709233e+00    5.475439e+03
  4.762351e+00    5.879909e+03
  4.815469e+00    5.686549e+03
  4.868587e+00    5.446098e+03
  4.921705e+00    5.494991e+03
  4.974824e+00    5.461991e+03
  5.027942e+00    5.401610e+03
  5.081060e+00    5.398588e+03
  5.134178e+00    5.225562e+03
  5.187296e+00    5.081712e+03
  5.240414e+00    4.959808e+03
  5.293533e+00    4.763029e+03
  5.346651e+00    4.556410e+03
  5.399769e+00    4.397069e+03
  5.452887e+00    4.415319e+03
  5.506005e+00    4.494549e+03
  5.559123e+00    4.126344e+03
  5.612242e+00    3.853346e+03
  5.665360e+00    3.757469e+03
  5.718478e+00    3.605821e+03
  5.771596e+00    3.522496e+03
  5.824714e+00    3.536839e+03
  5.877832e+00    3.581306e+03
  5.930951e+00    3.659208e+03
  5.984069e+00    3.770782e+03
  6.037187e+00    3.803249e+03
  6.090305e+00    3.787016e+03
  6.143423e+00    3.721519e+03
  6.196541e+00    3.810006e+03
  6.249660e+00    4.173371e+03
  6.302778e+00    4.299119e+03
  6.355896e+00    4.011979e+03
  6.409014e+00    3.909000e+03
  6.462132e+00    3.780417e+03
  6.515250e+00    3.665316e+03
  6.568368e+00    3.600279e+03
  6.621487e+00    3.557996e+03
  6.674605e+00    3.507010e+03
  6.727723e+00    3.482058e+03
  6.780841e+00    3.451178e+03
  6.833959e+00    3.419849e+03
  6.887077e+00    3.377079e+03
  6.940196e+00    3.330934e+03
  6.993314e+00    3.382246e+03
  7.046432e+00    3.457002e+03
  7.099550e+00    3.517064e+03
  7.152668e+00    3.470468e+03
  7.205786e+00    3.336822e+03
  7.258905e+00    3.246546e+03
  7.312023e+00    3.179180e+03
  7.365141e+00    3.144345e+03
  7.418259e+00    3.148372e+03
  7.471377e+00    3.169271e+03
  7.524495e+00    3.213328e+03
  7.577614e+00    3.240776e+03
  7.630732e+00    3.263835e+03
  7.683850e+00    3.404774e+03
  7.736968e+00    3.633049e+03
  7.790086e+00    3.654984e+03
  7.843204e+00    3.451571e+03
  7.896322e+00    3.214281e+03
  7.949441e+00    3.065258e+03
  8.002559e+00    3.010842e+03
  8.055677e+00    3.010038e+03
  8.108795e+00    3.035014e+03
  8.161913e+00    3.102077e+03
  8.215031e+00    3.143872e+03
  8.268150e+00    3.078739e+03
  8.321268e+00    3.007795e+03
  8.374386e+00    2.988082e+03
  8.427504e+00    2.963401e+03
  8.480622e+00    2.953153e+03
  8.533740e+00    2.926816e+03
  8.586859e+00    2.958169e+03
  8.639977e+00    2.940397e+03
  8.693095e+00    2.906490e+03
  8.746213e+00    2.887307e+03
  8.799331e+00    2.865215e+03
  8.852449e+00    2.843350e+03
  8.905568e+00    2.854487e+03
  8.958686e+00    2.874515e+03
  9.011804e+00    2.886489e+03
  9.064922e+00    2.813578e+03
  9.118040e+00    2.720890e+03
  9.171158e+00    2.682719e+03
  9.224276e+00    2.672789e+03
  9.277395e+00    2.650702e+03
  9.330513e+00    2.635414e+03
  9.383631e+00    2.637604e+03
  9.436749e+00    2.635450e+03
  9.489867e+00    2.649988e+03
  9.542985e+00    2.642736e+03
  9.596104e+00    2.610042e+03
  9.649222e+00    2.588667e+03
  9.702340e+00    2.570440e+03
  9.755458e+00    2.562651e+03
  9.808576e+00    2.552687e+03
  9.861694e+00    2.554736e+03
  9.914813e+00    2.562714e+03
  9.967931e+00    2.560374e+03
  1.002105e+01    2.521420e+03
  1.007417e+01    2.467708e+03
  1.012729e+01    2.437228e+03
  1.018040e+01    2.436621e+03
  1.023352e+01    2.430450e+03
  1.028664e+01    2.423966e+03
  1.033976e+01    2.425454e+03
  1.039288e+01    2.441326e+03
  1.044599e+01    2.424384e+03
  1.049911e+01    2.421294e+03
  1.055223e+01    2.400750e+03
  1.060535e+01    2.393124e+03
  1.065847e+01    2.385251e+03
  1.071158e+01    2.380452e+03
  1.076470e+01    2.374163e+03
  1.081782e+01    2.383649e+03
  1.087094e+01    2.377991e+03
  1.092406e+01    2.372604e+03
  1.097718e+01    2.362036e+03
  1.103029e+01    2.347174e+03
  1.108341e+01    2.332614e+03
  1.113653e+01    2.317489e+03
  1.118965e+01    2.305733e+03
  1.124277e+01    2.295187e+03
  1.129588e+01    2.288622e+03
  1.134900e+01    2.277026e+03
  1.140212e+01    2.269362e+03
  1.145524e+01    2.256194e+03
  1.150836e+01    2.253919e+03
  1.156148e+01    2.245407e+03
  1.161459e+01    2.248752e+03
  1.166771e+01    2.243845e+03
  1.172083e+01    2.261696e+03
  1.177395e+01    2.254503e+03
  1.182707e+01    2.258906e+03
  1.188018e+01    2.265328e+03
  1.193330e+01    2.252391e+03
  1.198642e+01    2.236387e+03
  1.203954e+01    2.214715e+03
  1.209266e+01    2.206989e+03
  1.214578e+01    2.196110e+03
  1.219889e+01    2.200090e+03
  1.225201e+01    2.201456e+03
  1.230513e+01    2.201327e+03
  1.235825e+01    2.204547e+03
  1.241137e+01    2.196184e+03
  1.246448e+01    2.197355e+03
  1.251760e+01    2.199723e+03
  1.257072e+01    2.194568e+03
  1.262384e+01    2.194831e+03
  1.267696e+01    2.178214e+03
  1.273008e+01    2.159802e+03
  1.278319e+01    2.149028e+03
  1.283631e+01    2.137728e+03
  1.288943e+01    2.129430e+03
  1.294255e+01    2.117299e+03
  1.299567e+01    2.112052e+03
  1.304878e+01    2.102260e+03
  1.310190e+01    2.098879e+03
  1.315502e+01    2.094159e+03
  1.320814e+01    2.065646e+03
  1.326126e+01    2.038737e+03
  1.331437e+01    2.022648e+03
  1.336749e+01    2.010611e+03
  1.342061e+01    1.997151e+03
  1.347373e+01    2.022940e+03
  1.352685e+01    2.026584e+03
  1.357997e+01    2.018125e+03
  1.363308e+01    2.005139e+03
  1.368620e+01    1.997301e+03
  1.373932e+01    1.985791e+03
  1.379244e+01    1.981427e+03
  1.384556e+01    1.974104e+03
  1.389867e+01    1.966402e+03
  1.395179e+01    1.960249e+03
  1.400491e+01    1.956449e+03
  1.405803e+01    1.955387e+03
  1.411115e+01    1.947382e+03
  1.416427e+01    1.939656e+03
  1.421738e+01    1.937073e+03
  1.427050e+01    1.930119e+03
  1.432362e+01    1.933167e+03
  1.437674e+01    1.931131e+03
  1.442986e+01    1.919974e+03
  1.448297e+01    1.912588e+03
  1.453609e+01    1.904739e+03
  1.458921e+01    1.896093e+03
  1.464233e+01    1.892456e+03
  1.469545e+01    1.887785e+03
  1.474857e+01    1.869213e+03
  1.480168e+01    1.881331e+03
  1.485480e+01    1.877993e+03
  1.490792e+01    1.873756e+03
  1.496104e+01    1.866249e+03
  1.501416e+01    1.861655e+03
  1.506727e+01    1.857383e+03
  1.512039e+01    1.851974e+03
  1.517351e+01    1.863584e+03
  1.522663e+01    1.877608e+03
  1.527975e+01    1.874712e+03
  1.533286e+01    1.858000e+03
  1.538598e+01    1.846932e+03
  1.543910e+01    1.838838e+03
  1.549222e+01    1.835447e+03
  1.554534e+01    1.837092e+03
  1.559846e+01    1.834398e+03
  1.565157e+01    1.827194e+03
  1.570469e+01    1.819410e+03
  1.575781e+01    1.816588e+03
  1.581093e+01    1.811978e+03
  1.586405e+01    1.809118e+03
  1.591716e+01    1.802797e+03
  1.597028e+01    1.798168e+03
  1.602340e+01    1.781799e+03
  1.607652e+01    1.771258e+03
  1.612964e+01    1.748797e+03
  1.618276e+01    1.737530e+03
  1.623587e+01    1.739006e+03
  1.628899e+01    1.755964e+03
  1.634211e+01    1.756358e+03
  1.639523e+01    1.751069e+03
  1.644835e+01    1.752018e+03
  1.650146e+01    1.745672e+03
  1.655458e+01    1.744020e+03
  1.660770e+01    1.739918e+03
  1.666082e+01    1.733406e+03
  1.671394e+01    1.732526e+03
  1.676706e+01    1.728856e+03
  1.682017e+01    1.741207e+03
  1.687329e+01    1.731220e+03
  1.692641e+01    1.723812e+03
  1.697953e+01    1.718381e+03
  1.703265e+01    1.714930e+03
  1.708576e+01    1.713356e+03
  1.713888e+01    1.704996e+03
  1.719200e+01    1.702951e+03
  1.724512e+01    1.695521e+03
  1.729824e+01    1.696650e+03
  1.735136e+01    1.690280e+03
  1.740447e+01    1.667021e+03
  1.745759e+01    1.675147e+03
  1.751071e+01    1.675997e+03
  1.756383e+01    1.686098e+03
  1.761695e+01    1.668954e+03
  1.767006e+01    1.665961e+03
  1.772318e+01    1.657422e+03
  1.777630e+01    1.655523e+03
  1.782942e+01    1.647264e+03
  1.788254e+01    1.643295e+03
  1.793565e+01    1.640374e+03
  1.798877e+01    1.639088e+03
  1.804189e+01    1.632860e+03
  1.809501e+01    1.628375e+03
  1.814813e+01    1.625386e+03
  1.820125e+01    1.619358e+03
  1.825436e+01    1.625666e+03
  1.830748e+01    1.619739e+03
  1.836060e+01    1.615669e+03
  1.841372e+01    1.613164e+03
  1.846684e+01    1.607964e+03
  1.851995e+01    1.587572e+03
  1.857307e+01    1.573676e+03
  1.862619e+01    1.563567e+03
  1.867931e+01    1.561278e+03
  1.873243e+01    1.580909e+03
  1.878555e+01    1.582228e+03
  1.883866e+01    1.581119e+03
  1.889178e+01    1.581700e+03
  1.894490e+01    1.592089e+03
  1.899802e+01    1.582363e+03
  1.905114e+01    1.577246e+03
  1.910425e+01    1.571604e+03
  1.915737e+01    1.568537e+03
  1.921049e+01    1.563983e+03
  1.926361e+01    1.559907e+03
  1.931673e+01    1.557755e+03
  1.936985e+01    1.555438e+03
  1.942296e+01    1.552434e+03
  1.947608e+01    1.552146e+03
  1.952920e+01    1.548454e+03
  1.958232e+01    1.548523e+03
  1.963544e+01    1.553628e+03
  1.968855e+01    1.538983e+03
  1.974167e+01    1.527754e+03
  1.979479e+01    1.532223e+03
  1.984791e+01    1.530597e+03
  1.990103e+01    1.527818e+03
  1.995414e+01    1.526501e+03
  2.000726e+01    1.524628e+03
  2.006038e+01    1.519975e+03
  2.011350e+01    1.515775e+03
  2.016662e+01    1.509343e+03
  2.021974e+01    1.513108e+03
  2.027285e+01    1.519638e+03
  2.032597e+01    1.502873e+03
  2.037909e+01    1.498566e+03
  2.043221e+01    1.494261e+03
  2.048533e+01    1.492167e+03
  2.053844e+01    1.490727e+03
  2.059156e+01    1.486656e+03
  2.064468e+01    1.482897e+03
  2.069780e+01    1.462478e+03
  2.075092e+01    1.438857e+03
  2.080404e+01    1.424958e+03
  2.085715e+01    1.444180e+03
  2.091027e+01    1.470309e+03
  2.096339e+01    1.478842e+03
  2.101651e+01    1.482870e+03
  2.106963e+01    1.486241e+03
  2.112274e+01    1.491024e+03
  2.117586e+01    1.491885e+03
  2.122898e+01    1.494238e+03
  2.128210e+01    1.492313e+03
  2.133522e+01    1.493183e+03
  2.138834e+01    1.490997e+03
  2.144145e+01    1.490149e+03
  2.149457e+01    1.492136e+03
  2.154769e+01    1.489068e+03
  2.160081e+01    1.489687e+03
  2.165393e+01    1.490532e+03
  2.170704e+01    1.490991e+03
  2.176016e+01    1.480776e+03
  2.181328e+01    1.488447e+03
  2.186640e+01    1.488787e+03
  2.191952e+01    1.488203e+03
  2.197263e+01    1.485179e+03
  2.202575e+01    1.483993e+03
  2.207887e+01    1.482863e+03
  2.213199e+01    1.479869e+03
  2.218511e+01    1.479665e+03
  2.223823e+01    1.479451e+03
  2.229134e+01    1.476235e+03
  2.234446e+01    1.476656e+03
  2.239758e+01    1.475282e+03
  2.245070e+01    1.474190e+03
  2.250382e+01    1.474810e+03
  2.255693e+01    1.471816e+03
  2.261005e+01    1.452310e+03
  2.266317e+01    1.439259e+03
  2.271629e+01    1.430674e+03
  2.276941e+01    1.422549e+03
  2.282253e+01    1.413956e+03
  2.287564e+01    1.410722e+03
  2.292876e+01    1.406088e+03
  2.298188e+01    1.402168e+03
  2.303500e+01    1.400964e+03
  2.308812e+01    1.397282e+03
  2.314123e+01    1.394973e+03
  2.319435e+01    1.390449e+03
  2.324747e+01    1.382922e+03
  2.330059e+01    1.380497e+03
  2.335371e+01    1.378507e+03
  2.340683e+01    1.374194e+03
  2.345994e+01    1.371012e+03
  2.351306e+01    1.366641e+03
  2.356618e+01    1.363456e+03
  2.361930e+01    1.358237e+03
  2.367242e+01    1.353217e+03
  2.372553e+01    1.346620e+03
  2.377865e+01    1.343117e+03
  2.383177e+01    1.336332e+03
  2.388489e+01    1.333529e+03
  2.393801e+01    1.327649e+03
  2.399113e+01    1.326960e+03
  2.404424e+01    1.325983e+03
  2.409736e+01    1.323840e+03
  2.415048e+01    1.317393e+03
  2.420360e+01    1.315776e+03
  2.425672e+01    1.313655e+03
  2.430983e+01    1.308939e+03
  2.436295e+01    1.306157e+03
  2.441607e+01    1.303865e+03
  2.446919e+01    1.301952e+03
  2.452231e+01    1.301791e+03
  2.457542e+01    1.298709e+03
  2.462854e+01    1.295784e+03
  2.468166e+01    1.295434e+03
  2.473478e+01    1.290328e+03
  2.478790e+01    1.282215e+03
  2.484102e+01    1.280653e+03
  2.489413e+01    1.276041e+03
  2.494725e+01    1.272607e+03
  2.500037e+01    1.269088e+03
  2.505349e+01    1.263223e+03
  2.510661e+01    1.256214e+03
  2.515972e+01    1.255382e+03
  2.521284e+01    1.252537e+03
  2.526596e+01    1.252383e+03
  2.531908e+01    1.247014e+03
  2.537220e+01    1.244779e+03
  2.542532e+01    1.241761e+03
  2.547843e+01    1.240749e+03
  2.553155e+01    1.233030e+03
  2.558467e+01    1.229355e+03
  2.563779e+01    1.221837e+03
  2.569091e+01    1.215463e+03
  2.574402e+01    1.207942e+03
  2.579714e+01    1.199140e+03
  2.585026e+01    1.194662e+03
  2.590338e+01    1.185597e+03
  2.595650e+01    1.180568e+03
  2.600962e+01    1.182031e+03
  2.606273e+01    1.181279e+03
  2.611585e+01    1.178465e+03
  2.616897e+01    1.179907e+03
  2.622209e+01    1.175644e+03
  2.627521e+01    1.172501e+03
  2.632832e+01    1.163832e+03
  2.638144e+01    1.168811e+03
  2.643456e+01    1.155948e+03
  2.648768e+01    1.134099e+03
  2.654080e+01    1.121209e+03
