# == pyFAI calibration ==
# Distance Sample to Detector: 0.2946421923531691 m
# PONI: 2.875e-01, 2.439e-01 m
# Rotations: -0.010990 -0.009181 0.000003 rad
# 
# == Fit2d calibration ==
# Distance Sample-beamCenter: 294.672 mm
# Center: x=1436.809, y=1655.851 pix
# Tilt: 0.820 deg  TiltPlanRot: -39.874 deg
# 
# Detector Pilatus 2M	 PixelSize= 1.720e-04, 1.720e-04 m
#    Detector has a mask: True 
#    Detector has a dark current: False 
#    detector has a flat field: False 
# 
# Wavelength: 2.0732883349524408e-11 m
# Mask applied: from detector
# Dark current applied: False
# Flat field applied: False
# Polarization factor: None
# Normalization factor: 1.0
# --> /gpfs/current/raw/FMue_3/FMue_3_20231024_175355_00183.dat
#        q_A^-1             I 
  3.483473e-02             nan
  8.795289e-02             nan
  1.410711e-01             nan
  1.941892e-01             nan
  2.473074e-01             nan
  3.004255e-01             nan
  3.535437e-01             nan
  4.066619e-01    1.145124e+04
  4.597800e-01    1.051256e+04
  5.128982e-01    8.939663e+03
  5.660163e-01    8.151537e+03
  6.191345e-01    7.868687e+03
  6.722527e-01    7.773751e+03
  7.253708e-01    7.826694e+03
  7.784890e-01    7.878704e+03
  8.316071e-01    8.035029e+03
  8.847253e-01    8.164012e+03
  9.378435e-01    8.350218e+03
  9.909616e-01    8.558619e+03
  1.044080e+00    8.871951e+03
  1.097198e+00    9.302751e+03
  1.150316e+00    9.927637e+03
  1.203434e+00    1.062047e+04
  1.256552e+00    1.151648e+04
  1.309671e+00    1.268176e+04
  1.362789e+00    1.376486e+04
  1.415907e+00    1.422995e+04
  1.469025e+00    1.433000e+04
  1.522143e+00    1.418985e+04
  1.575261e+00    1.363419e+04
  1.628380e+00    1.288344e+04
  1.681498e+00    1.195908e+04
  1.734616e+00    1.100017e+04
  1.787734e+00    1.016785e+04
  1.840852e+00    9.452395e+03
  1.893970e+00    8.874354e+03
  1.947089e+00    8.453506e+03
  2.000207e+00    8.152644e+03
  2.053325e+00    8.051391e+03
  2.106443e+00    8.517214e+03
  2.159561e+00    9.586648e+03
  2.212679e+00    9.857389e+03
  2.265797e+00    9.329318e+03
  2.318916e+00    8.562497e+03
  2.372034e+00    7.855859e+03
  2.425152e+00    8.085877e+03
  2.478270e+00    9.544144e+03
  2.531388e+00    1.294356e+04
  2.584506e+00    1.399946e+04
  2.637625e+00    1.070163e+04
  2.690743e+00    8.487000e+03
  2.743861e+00    7.651659e+03
  2.796979e+00    6.399580e+03
  2.850097e+00    5.513969e+03
  2.903215e+00    5.209464e+03
  2.956334e+00    5.140316e+03
  3.009452e+00    5.485324e+03
  3.062570e+00    6.991610e+03
  3.115688e+00    9.264982e+03
  3.168806e+00    9.004264e+03
  3.221924e+00    7.269744e+03
  3.275043e+00    5.730715e+03
  3.328161e+00    4.880527e+03
  3.381279e+00    4.657057e+03
  3.434397e+00    4.658938e+03
  3.487515e+00    4.747760e+03
  3.540633e+00    4.666978e+03
  3.593751e+00    4.589633e+03
  3.646870e+00    4.649738e+03
  3.699988e+00    4.819578e+03
  3.753106e+00    5.133308e+03
  3.806224e+00    5.375537e+03
  3.859342e+00    5.387421e+03
  3.912460e+00    5.630729e+03
  3.965579e+00    6.472251e+03
  4.018697e+00    7.445507e+03
  4.071815e+00    7.435029e+03
  4.124933e+00    6.795955e+03
  4.178051e+00    6.353792e+03
  4.231169e+00    6.205943e+03
  4.284288e+00    6.591907e+03
  4.337406e+00    8.255955e+03
  4.390524e+00    1.045958e+04
  4.443642e+00    1.199473e+04
  4.496760e+00    1.217634e+04
  4.549878e+00    8.509675e+03
  4.602997e+00    5.900558e+03
  4.656115e+00    5.269583e+03
  4.709233e+00    5.069674e+03
  4.762351e+00    5.017094e+03
  4.815469e+00    5.075837e+03
  4.868587e+00    5.207055e+03
  4.921705e+00    5.279217e+03
  4.974824e+00    5.356721e+03
  5.027942e+00    5.513057e+03
  5.081060e+00    5.704715e+03
  5.134178e+00    5.502286e+03
  5.187296e+00    5.053723e+03
  5.240414e+00    4.669480e+03
  5.293533e+00    4.466651e+03
  5.346651e+00    4.383201e+03
  5.399769e+00    4.299454e+03
  5.452887e+00    4.266407e+03
  5.506005e+00    4.143616e+03
  5.559123e+00    3.787575e+03
  5.612242e+00    3.609272e+03
  5.665360e+00    3.576757e+03
  5.718478e+00    3.561943e+03
  5.771596e+00    3.618785e+03
  5.824714e+00    3.711649e+03
  5.877832e+00    3.885679e+03
  5.930951e+00    4.151390e+03
  5.984069e+00    4.175314e+03
  6.037187e+00    3.956044e+03
  6.090305e+00    3.780529e+03
  6.143423e+00    3.753799e+03
  6.196541e+00    3.902287e+03
  6.249660e+00    4.016313e+03
  6.302778e+00    3.884969e+03
  6.355896e+00    3.623771e+03
  6.409014e+00    3.524965e+03
  6.462132e+00    3.461255e+03
  6.515250e+00    3.423931e+03
  6.568368e+00    3.451484e+03
  6.621487e+00    3.522494e+03
  6.674605e+00    3.639434e+03
  6.727723e+00    3.687617e+03
  6.780841e+00    3.524206e+03
  6.833959e+00    3.337236e+03
  6.887077e+00    3.250046e+03
  6.940196e+00    3.219567e+03
  6.993314e+00    3.247019e+03
  7.046432e+00    3.246264e+03
  7.099550e+00    3.175425e+03
  7.152668e+00    3.114785e+03
  7.205786e+00    3.070815e+03
  7.258905e+00    3.061403e+03
  7.312023e+00    3.123302e+03
  7.365141e+00    3.225412e+03
  7.418259e+00    3.266728e+03
  7.471377e+00    3.267645e+03
  7.524495e+00    3.338099e+03
  7.577614e+00    3.482948e+03
  7.630732e+00    3.510480e+03
  7.683850e+00    3.527832e+03
  7.736968e+00    3.597770e+03
  7.790086e+00    3.503943e+03
  7.843204e+00    3.334268e+03
  7.896322e+00    3.213886e+03
  7.949441e+00    3.178518e+03
  8.002559e+00    3.191690e+03
  8.055677e+00    3.148359e+03
  8.108795e+00    3.072099e+03
  8.161913e+00    3.021879e+03
  8.215031e+00    2.976678e+03
  8.268150e+00    2.933762e+03
  8.321268e+00    2.896427e+03
  8.374386e+00    2.875074e+03
  8.427504e+00    2.858694e+03
  8.480622e+00    2.850340e+03
  8.533740e+00    2.807576e+03
  8.586859e+00    2.839804e+03
  8.639977e+00    2.826048e+03
  8.693095e+00    2.815534e+03
  8.746213e+00    2.827093e+03
  8.799331e+00    2.812094e+03
  8.852449e+00    2.788711e+03
  8.905568e+00    2.789415e+03
  8.958686e+00    2.790599e+03
  9.011804e+00    2.785529e+03
  9.064922e+00    2.742574e+03
  9.118040e+00    2.715413e+03
  9.171158e+00    2.691674e+03
  9.224276e+00    2.649119e+03
  9.277395e+00    2.601159e+03
  9.330513e+00    2.570573e+03
  9.383631e+00    2.547420e+03
  9.436749e+00    2.534688e+03
  9.489867e+00    2.548569e+03
  9.542985e+00    2.559000e+03
  9.596104e+00    2.558237e+03
  9.649222e+00    2.567522e+03
  9.702340e+00    2.555957e+03
  9.755458e+00    2.541482e+03
  9.808576e+00    2.537759e+03
  9.861694e+00    2.532504e+03
  9.914813e+00    2.520737e+03
  9.967931e+00    2.495712e+03
  1.002105e+01    2.469765e+03
  1.007417e+01    2.451414e+03
  1.012729e+01    2.434062e+03
  1.018040e+01    2.413527e+03
  1.023352e+01    2.374249e+03
  1.028664e+01    2.339069e+03
  1.033976e+01    2.323700e+03
  1.039288e+01    2.345525e+03
  1.044599e+01    2.337678e+03
  1.049911e+01    2.337021e+03
  1.055223e+01    2.330876e+03
  1.060535e+01    2.331669e+03
  1.065847e+01    2.319821e+03
  1.071158e+01    2.306453e+03
  1.076470e+01    2.298746e+03
  1.081782e+01    2.297619e+03
  1.087094e+01    2.288141e+03
  1.092406e+01    2.301053e+03
  1.097718e+01    2.308156e+03
  1.103029e+01    2.306550e+03
  1.108341e+01    2.296380e+03
  1.113653e+01    2.274971e+03
  1.118965e+01    2.253953e+03
  1.124277e+01    2.240445e+03
  1.129588e+01    2.234816e+03
  1.134900e+01    2.231007e+03
  1.140212e+01    2.242026e+03
  1.145524e+01    2.241860e+03
  1.150836e+01    2.249547e+03
  1.156148e+01    2.246960e+03
  1.161459e+01    2.247478e+03
  1.166771e+01    2.227792e+03
  1.172083e+01    2.228601e+03
  1.177395e+01    2.211816e+03
  1.182707e+01    2.203855e+03
  1.188018e+01    2.205421e+03
  1.193330e+01    2.191257e+03
  1.198642e+01    2.171371e+03
  1.203954e+01    2.151812e+03
  1.209266e+01    2.149098e+03
  1.214578e+01    2.141168e+03
  1.219889e+01    2.148649e+03
  1.225201e+01    2.149782e+03
  1.230513e+01    2.141341e+03
  1.235825e+01    2.137237e+03
  1.241137e+01    2.120705e+03
  1.246448e+01    2.118786e+03
  1.251760e+01    2.115445e+03
  1.257072e+01    2.110281e+03
  1.262384e+01    2.117136e+03
  1.267696e+01    2.105510e+03
  1.273008e+01    2.088936e+03
  1.278319e+01    2.078201e+03
  1.283631e+01    2.068266e+03
  1.288943e+01    2.061513e+03
  1.294255e+01    2.048130e+03
  1.299567e+01    2.047765e+03
  1.304878e+01    2.040441e+03
  1.310190e+01    2.039313e+03
  1.315502e+01    2.035613e+03
  1.320814e+01    2.011492e+03
  1.326126e+01    1.987988e+03
  1.331437e+01    1.980266e+03
  1.336749e+01    1.975618e+03
  1.342061e+01    1.963451e+03
  1.347373e+01    1.981994e+03
  1.352685e+01    1.980760e+03
  1.357997e+01    1.968028e+03
  1.363308e+01    1.957721e+03
  1.368620e+01    1.951391e+03
  1.373932e+01    1.943991e+03
  1.379244e+01    1.939658e+03
  1.384556e+01    1.930470e+03
  1.389867e+01    1.923269e+03
  1.395179e+01    1.913459e+03
  1.400491e+01    1.911541e+03
  1.405803e+01    1.907900e+03
  1.411115e+01    1.901335e+03
  1.416427e+01    1.890085e+03
  1.421738e+01    1.886314e+03
  1.427050e+01    1.878803e+03
  1.432362e+01    1.878525e+03
  1.437674e+01    1.875857e+03
  1.442986e+01    1.865579e+03
  1.448297e+01    1.859370e+03
  1.453609e+01    1.851857e+03
  1.458921e+01    1.842020e+03
  1.464233e+01    1.838943e+03
  1.469545e+01    1.832586e+03
  1.474857e+01    1.814787e+03
  1.480168e+01    1.824792e+03
  1.485480e+01    1.817900e+03
  1.490792e+01    1.813703e+03
  1.496104e+01    1.808489e+03
  1.501416e+01    1.806054e+03
  1.506727e+01    1.802564e+03
  1.512039e+01    1.799669e+03
  1.517351e+01    1.812490e+03
  1.522663e+01    1.825719e+03
  1.527975e+01    1.820630e+03
  1.533286e+01    1.807402e+03
  1.538598e+01    1.797405e+03
  1.543910e+01    1.788729e+03
  1.549222e+01    1.785244e+03
  1.554534e+01    1.782716e+03
  1.559846e+01    1.780832e+03
  1.565157e+01    1.774786e+03
  1.570469e+01    1.770495e+03
  1.575781e+01    1.767923e+03
  1.581093e+01    1.762115e+03
  1.586405e+01    1.760934e+03
  1.591716e+01    1.753149e+03
  1.597028e+01    1.748376e+03
  1.602340e+01    1.733099e+03
  1.607652e+01    1.722532e+03
  1.612964e+01    1.698329e+03
  1.618276e+01    1.686076e+03
  1.623587e+01    1.689195e+03
  1.628899e+01    1.704826e+03
  1.634211e+01    1.703065e+03
  1.639523e+01    1.697212e+03
  1.644835e+01    1.699075e+03
  1.650146e+01    1.692164e+03
  1.655458e+01    1.692346e+03
  1.660770e+01    1.688638e+03
  1.666082e+01    1.681972e+03
  1.671394e+01    1.681251e+03
  1.676706e+01    1.676978e+03
  1.682017e+01    1.689339e+03
  1.687329e+01    1.679568e+03
  1.692641e+01    1.672607e+03
  1.697953e+01    1.667503e+03
  1.703265e+01    1.663160e+03
  1.708576e+01    1.661151e+03
  1.713888e+01    1.652836e+03
  1.719200e+01    1.652765e+03
  1.724512e+01    1.645487e+03
  1.729824e+01    1.644347e+03
  1.735136e+01    1.638563e+03
  1.740447e+01    1.616193e+03
  1.745759e+01    1.624809e+03
  1.751071e+01    1.626341e+03
  1.756383e+01    1.637669e+03
  1.761695e+01    1.621209e+03
  1.767006e+01    1.618866e+03
  1.772318e+01    1.609644e+03
  1.777630e+01    1.607961e+03
  1.782942e+01    1.599458e+03
  1.788254e+01    1.595349e+03
  1.793565e+01    1.593944e+03
  1.798877e+01    1.591633e+03
  1.804189e+01    1.585041e+03
  1.809501e+01    1.578977e+03
  1.814813e+01    1.576360e+03
  1.820125e+01    1.572538e+03
  1.825436e+01    1.576902e+03
  1.830748e+01    1.571256e+03
  1.836060e+01    1.565831e+03
  1.841372e+01    1.562853e+03
  1.846684e+01    1.558619e+03
  1.851995e+01    1.540203e+03
  1.857307e+01    1.525672e+03
  1.862619e+01    1.515988e+03
  1.867931e+01    1.512012e+03
  1.873243e+01    1.532281e+03
  1.878555e+01    1.534922e+03
  1.883866e+01    1.533806e+03
  1.889178e+01    1.532712e+03
  1.894490e+01    1.544052e+03
  1.899802e+01    1.534371e+03
  1.905114e+01    1.529097e+03
  1.910425e+01    1.524563e+03
  1.915737e+01    1.521864e+03
  1.921049e+01    1.516784e+03
  1.926361e+01    1.512978e+03
  1.931673e+01    1.509555e+03
  1.936985e+01    1.505729e+03
  1.942296e+01    1.504037e+03
  1.947608e+01    1.503880e+03
  1.952920e+01    1.501106e+03
  1.958232e+01    1.500848e+03
  1.963544e+01    1.506703e+03
  1.968855e+01    1.491786e+03
  1.974167e+01    1.478944e+03
  1.979479e+01    1.484652e+03
  1.984791e+01    1.482713e+03
  1.990103e+01    1.480370e+03
  1.995414e+01    1.479295e+03
  2.000726e+01    1.475854e+03
  2.006038e+01    1.472220e+03
  2.011350e+01    1.467470e+03
  2.016662e+01    1.462185e+03
  2.021974e+01    1.465730e+03
  2.027285e+01    1.471274e+03
  2.032597e+01    1.456173e+03
  2.037909e+01    1.450828e+03
  2.043221e+01    1.445678e+03
  2.048533e+01    1.444159e+03
  2.053844e+01    1.443145e+03
  2.059156e+01    1.438701e+03
  2.064468e+01    1.435055e+03
  2.069780e+01    1.417139e+03
  2.075092e+01    1.392768e+03
  2.080404e+01    1.378844e+03
  2.085715e+01    1.397895e+03
  2.091027e+01    1.424221e+03
  2.096339e+01    1.432028e+03
  2.101651e+01    1.436461e+03
  2.106963e+01    1.439026e+03
  2.112274e+01    1.443458e+03
  2.117586e+01    1.443482e+03
  2.122898e+01    1.446552e+03
  2.128210e+01    1.444010e+03
  2.133522e+01    1.445233e+03
  2.138834e+01    1.443018e+03
  2.144145e+01    1.443334e+03
  2.149457e+01    1.443607e+03
  2.154769e+01    1.442657e+03
  2.160081e+01    1.441259e+03
  2.165393e+01    1.443250e+03
  2.170704e+01    1.443220e+03
  2.176016e+01    1.432242e+03
  2.181328e+01    1.441143e+03
  2.186640e+01    1.442222e+03
  2.191952e+01    1.440454e+03
  2.197263e+01    1.438457e+03
  2.202575e+01    1.437578e+03
  2.207887e+01    1.436623e+03
  2.213199e+01    1.433660e+03
  2.218511e+01    1.438683e+03
  2.223823e+01    1.436878e+03
  2.229134e+01    1.431125e+03
  2.234446e+01    1.429254e+03
  2.239758e+01    1.429827e+03
  2.245070e+01    1.426688e+03
  2.250382e+01    1.428185e+03
  2.255693e+01    1.426000e+03
  2.261005e+01    1.407242e+03
  2.266317e+01    1.395615e+03
  2.271629e+01    1.387122e+03
  2.276941e+01    1.377382e+03
  2.282253e+01    1.370183e+03
  2.287564e+01    1.365541e+03
  2.292876e+01    1.360407e+03
  2.298188e+01    1.359721e+03
  2.303500e+01    1.354764e+03
  2.308812e+01    1.352475e+03
  2.314123e+01    1.352179e+03
  2.319435e+01    1.346126e+03
  2.324747e+01    1.340349e+03
  2.330059e+01    1.335544e+03
  2.335371e+01    1.334706e+03
  2.340683e+01    1.330688e+03
  2.345994e+01    1.325833e+03
  2.351306e+01    1.322312e+03
  2.356618e+01    1.317516e+03
  2.361930e+01    1.312613e+03
  2.367242e+01    1.307677e+03
  2.372553e+01    1.302023e+03
  2.377865e+01    1.298591e+03
  2.383177e+01    1.291541e+03
  2.388489e+01    1.288693e+03
  2.393801e+01    1.284751e+03
  2.399113e+01    1.283018e+03
  2.404424e+01    1.283729e+03
  2.409736e+01    1.281793e+03
  2.415048e+01    1.277275e+03
  2.420360e+01    1.275159e+03
  2.425672e+01    1.270187e+03
  2.430983e+01    1.268581e+03
  2.436295e+01    1.265362e+03
  2.441607e+01    1.262741e+03
  2.446919e+01    1.262473e+03
  2.452231e+01    1.262379e+03
  2.457542e+01    1.258413e+03
  2.462854e+01    1.253711e+03
  2.468166e+01    1.253592e+03
  2.473478e+01    1.248309e+03
  2.478790e+01    1.239686e+03
  2.484102e+01    1.239246e+03
  2.489413e+01    1.234476e+03
  2.494725e+01    1.228918e+03
  2.500037e+01    1.225761e+03
  2.505349e+01    1.219893e+03
  2.510661e+01    1.215254e+03
  2.515972e+01    1.213573e+03
  2.521284e+01    1.213164e+03
  2.526596e+01    1.209733e+03
  2.531908e+01    1.207241e+03
  2.537220e+01    1.206387e+03
  2.542532e+01    1.204391e+03
  2.547843e+01    1.201052e+03
  2.553155e+01    1.197433e+03
  2.558467e+01    1.188611e+03
  2.563779e+01    1.182480e+03
  2.569091e+01    1.177724e+03
  2.574402e+01    1.167597e+03
  2.579714e+01    1.161362e+03
  2.585026e+01    1.153178e+03
  2.590338e+01    1.149798e+03
  2.595650e+01    1.144870e+03
  2.600962e+01    1.144821e+03
  2.606273e+01    1.146269e+03
  2.611585e+01    1.140734e+03
  2.616897e+01    1.142575e+03
  2.622209e+01    1.139782e+03
  2.627521e+01    1.137837e+03
  2.632832e+01    1.129637e+03
  2.638144e+01    1.129871e+03
  2.643456e+01    1.124818e+03
  2.648768e+01    1.102935e+03
  2.654080e+01    1.094381e+03
