# == pyFAI calibration ==
# Distance Sample to Detector: 0.2946421923531691 m
# PONI: 2.875e-01, 2.439e-01 m
# Rotations: -0.010990 -0.009181 0.000003 rad
# 
# == Fit2d calibration ==
# Distance Sample-beamCenter: 294.672 mm
# Center: x=1436.809, y=1655.851 pix
# Tilt: 0.820 deg  TiltPlanRot: -39.874 deg
# 
# Detector Pilatus 2M	 PixelSize= 1.720e-04, 1.720e-04 m
#    Detector has a mask: True 
#    Detector has a dark current: False 
#    detector has a flat field: False 
# 
# Wavelength: 2.0732883349524408e-11 m
# Mask applied: from detector
# Dark current applied: False
# Flat field applied: False
# Polarization factor: None
# Normalization factor: 1.0
# --> /gpfs/current/raw/FMue_3/FMue_3_20231024_175355_00134.dat
#        q_A^-1             I 
  3.483473e-02             nan
  8.795289e-02             nan
  1.410711e-01             nan
  1.941892e-01             nan
  2.473074e-01             nan
  3.004255e-01             nan
  3.535437e-01             nan
  4.066619e-01    1.258859e+04
  4.597800e-01    1.156620e+04
  5.128982e-01    9.811867e+03
  5.660163e-01    8.868345e+03
  6.191345e-01    8.472770e+03
  6.722527e-01    8.314814e+03
  7.253708e-01    8.336103e+03
  7.784890e-01    8.372007e+03
  8.316071e-01    8.537256e+03
  8.847253e-01    8.710188e+03
  9.378435e-01    9.012123e+03
  9.909616e-01    9.395822e+03
  1.044080e+00    9.568258e+03
  1.097198e+00    9.703612e+03
  1.150316e+00    1.016362e+04
  1.203434e+00    1.083709e+04
  1.256552e+00    1.172082e+04
  1.309671e+00    1.281292e+04
  1.362789e+00    1.389647e+04
  1.415907e+00    1.438298e+04
  1.469025e+00    1.445714e+04
  1.522143e+00    1.430254e+04
  1.575261e+00    1.370767e+04
  1.628380e+00    1.296474e+04
  1.681498e+00    1.203392e+04
  1.734616e+00    1.107970e+04
  1.787734e+00    1.025155e+04
  1.840852e+00    9.560778e+03
  1.893970e+00    9.031442e+03
  1.947089e+00    8.804998e+03
  2.000207e+00    8.539472e+03
  2.053325e+00    8.235369e+03
  2.106443e+00    8.445498e+03
  2.159561e+00    9.061793e+03
  2.212679e+00    9.345813e+03
  2.265797e+00    9.254671e+03
  2.318916e+00    8.671215e+03
  2.372034e+00    7.979378e+03
  2.425152e+00    8.238608e+03
  2.478270e+00    9.439413e+03
  2.531388e+00    1.173762e+04
  2.584506e+00    1.280847e+04
  2.637625e+00    1.093284e+04
  2.690743e+00    8.962925e+03
  2.743861e+00    7.934032e+03
  2.796979e+00    6.578684e+03
  2.850097e+00    5.636382e+03
  2.903215e+00    5.324914e+03
  2.956334e+00    5.264019e+03
  3.009452e+00    5.582855e+03
  3.062570e+00    6.865116e+03
  3.115688e+00    9.161896e+03
  3.168806e+00    9.243195e+03
  3.221924e+00    7.489012e+03
  3.275043e+00    5.969634e+03
  3.328161e+00    5.167269e+03
  3.381279e+00    5.009808e+03
  3.434397e+00    4.955506e+03
  3.487515e+00    4.888703e+03
  3.540633e+00    4.785570e+03
  3.593751e+00    4.675013e+03
  3.646870e+00    4.709236e+03
  3.699988e+00    4.858261e+03
  3.753106e+00    5.080034e+03
  3.806224e+00    5.274029e+03
  3.859342e+00    5.403120e+03
  3.912460e+00    5.656069e+03
  3.965579e+00    6.222103e+03
  4.018697e+00    6.906648e+03
  4.071815e+00    7.206566e+03
  4.124933e+00    6.905774e+03
  4.178051e+00    6.496809e+03
  4.231169e+00    6.329150e+03
  4.284288e+00    6.675144e+03
  4.337406e+00    7.952883e+03
  4.390524e+00    9.811770e+03
  4.443642e+00    1.191853e+04
  4.496760e+00    1.249405e+04
  4.549878e+00    8.817346e+03
  4.602997e+00    6.015826e+03
  4.656115e+00    5.356659e+03
  4.709233e+00    5.174544e+03
  4.762351e+00    5.163514e+03
  4.815469e+00    5.159490e+03
  4.868587e+00    5.190532e+03
  4.921705e+00    5.246793e+03
  4.974824e+00    5.342573e+03
  5.027942e+00    5.427564e+03
  5.081060e+00    5.547478e+03
  5.134178e+00    5.453045e+03
  5.187296e+00    5.148758e+03
  5.240414e+00    4.792819e+03
  5.293533e+00    4.566268e+03
  5.346651e+00    4.431733e+03
  5.399769e+00    4.352875e+03
  5.452887e+00    4.332080e+03
  5.506005e+00    4.241453e+03
  5.559123e+00    3.898239e+03
  5.612242e+00    3.682175e+03
  5.665360e+00    3.614715e+03
  5.718478e+00    3.565100e+03
  5.771596e+00    3.567000e+03
  5.824714e+00    3.651501e+03
  5.877832e+00    3.793180e+03
  5.930951e+00    3.986285e+03
  5.984069e+00    4.078843e+03
  6.037187e+00    3.999229e+03
  6.090305e+00    3.842971e+03
  6.143423e+00    3.750577e+03
  6.196541e+00    3.851846e+03
  6.249660e+00    4.014350e+03
  6.302778e+00    3.938454e+03
  6.355896e+00    3.665694e+03
  6.409014e+00    3.548688e+03
  6.462132e+00    3.481924e+03
  6.515250e+00    3.432080e+03
  6.568368e+00    3.447636e+03
  6.621487e+00    3.494806e+03
  6.674605e+00    3.568903e+03
  6.727723e+00    3.628214e+03
  6.780841e+00    3.559298e+03
  6.833959e+00    3.428219e+03
  6.887077e+00    3.314407e+03
  6.940196e+00    3.260186e+03
  6.993314e+00    3.296851e+03
  7.046432e+00    3.303114e+03
  7.099550e+00    3.223436e+03
  7.152668e+00    3.152363e+03
  7.205786e+00    3.099384e+03
  7.258905e+00    3.073482e+03
  7.312023e+00    3.117512e+03
  7.365141e+00    3.189382e+03
  7.418259e+00    3.250969e+03
  7.471377e+00    3.282116e+03
  7.524495e+00    3.329942e+03
  7.577614e+00    3.428972e+03
  7.630732e+00    3.504844e+03
  7.683850e+00    3.579684e+03
  7.736968e+00    3.670257e+03
  7.790086e+00    3.574479e+03
  7.843204e+00    3.375808e+03
  7.896322e+00    3.216590e+03
  7.949441e+00    3.153004e+03
  8.002559e+00    3.146465e+03
  8.055677e+00    3.134674e+03
  8.108795e+00    3.099549e+03
  8.161913e+00    3.061617e+03
  8.215031e+00    3.005457e+03
  8.268150e+00    2.950221e+03
  8.321268e+00    2.908370e+03
  8.374386e+00    2.885375e+03
  8.427504e+00    2.866113e+03
  8.480622e+00    2.849134e+03
  8.533740e+00    2.803221e+03
  8.586859e+00    2.834875e+03
  8.639977e+00    2.830838e+03
  8.693095e+00    2.820309e+03
  8.746213e+00    2.822796e+03
  8.799331e+00    2.813896e+03
  8.852449e+00    2.804072e+03
  8.905568e+00    2.811958e+03
  8.958686e+00    2.813209e+03
  9.011804e+00    2.807468e+03
  9.064922e+00    2.751788e+03
  9.118040e+00    2.707382e+03
  9.171158e+00    2.691223e+03
  9.224276e+00    2.667454e+03
  9.277395e+00    2.625872e+03
  9.330513e+00    2.598875e+03
  9.383631e+00    2.577843e+03
  9.436749e+00    2.560759e+03
  9.489867e+00    2.567040e+03
  9.542985e+00    2.568266e+03
  9.596104e+00    2.559829e+03
  9.649222e+00    2.564899e+03
  9.702340e+00    2.562799e+03
  9.755458e+00    2.551895e+03
  9.808576e+00    2.547545e+03
  9.861694e+00    2.550226e+03
  9.914813e+00    2.543006e+03
  9.967931e+00    2.522997e+03
  1.002105e+01    2.488356e+03
  1.007417e+01    2.453956e+03
  1.012729e+01    2.432285e+03
  1.018040e+01    2.425512e+03
  1.023352e+01    2.400616e+03
  1.028664e+01    2.367341e+03
  1.033976e+01    2.349858e+03
  1.039288e+01    2.366507e+03
  1.044599e+01    2.354471e+03
  1.049911e+01    2.352799e+03
  1.055223e+01    2.339977e+03
  1.060535e+01    2.341913e+03
  1.065847e+01    2.330767e+03
  1.071158e+01    2.323102e+03
  1.076470e+01    2.315307e+03
  1.081782e+01    2.313497e+03
  1.087094e+01    2.300014e+03
  1.092406e+01    2.310194e+03
  1.097718e+01    2.314480e+03
  1.103029e+01    2.311980e+03
  1.108341e+01    2.309336e+03
  1.113653e+01    2.294171e+03
  1.118965e+01    2.276219e+03
  1.124277e+01    2.260896e+03
  1.129588e+01    2.254878e+03
  1.134900e+01    2.244226e+03
  1.140212e+01    2.247373e+03
  1.145524e+01    2.248295e+03
  1.150836e+01    2.256551e+03
  1.156148e+01    2.252955e+03
  1.161459e+01    2.257157e+03
  1.166771e+01    2.247230e+03
  1.172083e+01    2.252596e+03
  1.177395e+01    2.232657e+03
  1.182707e+01    2.220840e+03
  1.188018e+01    2.221822e+03
  1.193330e+01    2.207451e+03
  1.198642e+01    2.187111e+03
  1.203954e+01    2.168117e+03
  1.209266e+01    2.161297e+03
  1.214578e+01    2.151383e+03
  1.219889e+01    2.154107e+03
  1.225201e+01    2.157228e+03
  1.230513e+01    2.151866e+03
  1.235825e+01    2.150269e+03
  1.241137e+01    2.136501e+03
  1.246448e+01    2.133645e+03
  1.251760e+01    2.128495e+03
  1.257072e+01    2.122257e+03
  1.262384e+01    2.129579e+03
  1.267696e+01    2.114178e+03
  1.273008e+01    2.100562e+03
  1.278319e+01    2.091423e+03
  1.283631e+01    2.081203e+03
  1.288943e+01    2.075711e+03
  1.294255e+01    2.063837e+03
  1.299567e+01    2.059667e+03
  1.304878e+01    2.054365e+03
  1.310190e+01    2.051017e+03
  1.315502e+01    2.047180e+03
  1.320814e+01    2.023868e+03
  1.326126e+01    2.000978e+03
  1.331437e+01    1.990812e+03
  1.336749e+01    1.984121e+03
  1.342061e+01    1.974188e+03
  1.347373e+01    1.999021e+03
  1.352685e+01    1.998277e+03
  1.357997e+01    1.986894e+03
  1.363308e+01    1.973444e+03
  1.368620e+01    1.964481e+03
  1.373932e+01    1.957234e+03
  1.379244e+01    1.951353e+03
  1.384556e+01    1.944498e+03
  1.389867e+01    1.936637e+03
  1.395179e+01    1.927883e+03
  1.400491e+01    1.924271e+03
  1.405803e+01    1.922878e+03
  1.411115e+01    1.915557e+03
  1.416427e+01    1.906105e+03
  1.421738e+01    1.902393e+03
  1.427050e+01    1.893095e+03
  1.432362e+01    1.894020e+03
  1.437674e+01    1.889922e+03
  1.442986e+01    1.878349e+03
  1.448297e+01    1.870810e+03
  1.453609e+01    1.864751e+03
  1.458921e+01    1.855827e+03
  1.464233e+01    1.849684e+03
  1.469545e+01    1.844658e+03
  1.474857e+01    1.825748e+03
  1.480168e+01    1.836816e+03
  1.485480e+01    1.833414e+03
  1.490792e+01    1.828155e+03
  1.496104e+01    1.819492e+03
  1.501416e+01    1.817119e+03
  1.506727e+01    1.813106e+03
  1.512039e+01    1.811901e+03
  1.517351e+01    1.823364e+03
  1.522663e+01    1.837329e+03
  1.527975e+01    1.832949e+03
  1.533286e+01    1.818288e+03
  1.538598e+01    1.807951e+03
  1.543910e+01    1.801479e+03
  1.549222e+01    1.798717e+03
  1.554534e+01    1.796588e+03
  1.559846e+01    1.793805e+03
  1.565157e+01    1.786155e+03
  1.570469e+01    1.781629e+03
  1.575781e+01    1.779091e+03
  1.581093e+01    1.775274e+03
  1.586405e+01    1.773841e+03
  1.591716e+01    1.766805e+03
  1.597028e+01    1.761510e+03
  1.602340e+01    1.745528e+03
  1.607652e+01    1.734690e+03
  1.612964e+01    1.712145e+03
  1.618276e+01    1.699533e+03
  1.623587e+01    1.700975e+03
  1.628899e+01    1.717283e+03
  1.634211e+01    1.715022e+03
  1.639523e+01    1.710055e+03
  1.644835e+01    1.711775e+03
  1.650146e+01    1.705933e+03
  1.655458e+01    1.703900e+03
  1.660770e+01    1.700064e+03
  1.666082e+01    1.696589e+03
  1.671394e+01    1.695982e+03
  1.676706e+01    1.690157e+03
  1.682017e+01    1.703625e+03
  1.687329e+01    1.691010e+03
  1.692641e+01    1.686925e+03
  1.697953e+01    1.681236e+03
  1.703265e+01    1.677701e+03
  1.708576e+01    1.676573e+03
  1.713888e+01    1.667546e+03
  1.719200e+01    1.667598e+03
  1.724512e+01    1.659624e+03
  1.729824e+01    1.659908e+03
  1.735136e+01    1.653656e+03
  1.740447e+01    1.630276e+03
  1.745759e+01    1.638837e+03
  1.751071e+01    1.639822e+03
  1.756383e+01    1.651359e+03
  1.761695e+01    1.634798e+03
  1.767006e+01    1.632005e+03
  1.772318e+01    1.622739e+03
  1.777630e+01    1.621916e+03
  1.782942e+01    1.613291e+03
  1.788254e+01    1.610835e+03
  1.793565e+01    1.607023e+03
  1.798877e+01    1.605022e+03
  1.804189e+01    1.598042e+03
  1.809501e+01    1.592612e+03
  1.814813e+01    1.591202e+03
  1.820125e+01    1.585604e+03
  1.825436e+01    1.591435e+03
  1.830748e+01    1.583995e+03
  1.836060e+01    1.579415e+03
  1.841372e+01    1.577665e+03
  1.846684e+01    1.572427e+03
  1.851995e+01    1.552758e+03
  1.857307e+01    1.537911e+03
  1.862619e+01    1.528187e+03
  1.867931e+01    1.525104e+03
  1.873243e+01    1.544221e+03
  1.878555e+01    1.545226e+03
  1.883866e+01    1.544623e+03
  1.889178e+01    1.543925e+03
  1.894490e+01    1.556366e+03
  1.899802e+01    1.545255e+03
  1.905114e+01    1.540013e+03
  1.910425e+01    1.535566e+03
  1.915737e+01    1.532164e+03
  1.921049e+01    1.527693e+03
  1.926361e+01    1.523766e+03
  1.931673e+01    1.521724e+03
  1.936985e+01    1.518967e+03
  1.942296e+01    1.516075e+03
  1.947608e+01    1.516764e+03
  1.952920e+01    1.512688e+03
  1.958232e+01    1.513396e+03
  1.963544e+01    1.519001e+03
  1.968855e+01    1.502820e+03
  1.974167e+01    1.492699e+03
  1.979479e+01    1.497166e+03
  1.984791e+01    1.495291e+03
  1.990103e+01    1.492868e+03
  1.995414e+01    1.490824e+03
  2.000726e+01    1.488626e+03
  2.006038e+01    1.485120e+03
  2.011350e+01    1.480005e+03
  2.016662e+01    1.474256e+03
  2.021974e+01    1.478646e+03
  2.027285e+01    1.484716e+03
  2.032597e+01    1.468497e+03
  2.037909e+01    1.464198e+03
  2.043221e+01    1.459544e+03
  2.048533e+01    1.457046e+03
  2.053844e+01    1.455861e+03
  2.059156e+01    1.450672e+03
  2.064468e+01    1.448079e+03
  2.069780e+01    1.428562e+03
  2.075092e+01    1.405105e+03
  2.080404e+01    1.390688e+03
  2.085715e+01    1.408790e+03
  2.091027e+01    1.436133e+03
  2.096339e+01    1.443336e+03
  2.101651e+01    1.448509e+03
  2.106963e+01    1.452813e+03
  2.112274e+01    1.454939e+03
  2.117586e+01    1.456411e+03
  2.122898e+01    1.460554e+03
  2.128210e+01    1.456562e+03
  2.133522e+01    1.457486e+03
  2.138834e+01    1.453597e+03
  2.144145e+01    1.454746e+03
  2.149457e+01    1.455718e+03
  2.154769e+01    1.453527e+03
  2.160081e+01    1.454489e+03
  2.165393e+01    1.454257e+03
  2.170704e+01    1.454328e+03
  2.176016e+01    1.444101e+03
  2.181328e+01    1.452898e+03
  2.186640e+01    1.453634e+03
  2.191952e+01    1.451869e+03
  2.197263e+01    1.450468e+03
  2.202575e+01    1.447266e+03
  2.207887e+01    1.448306e+03
  2.213199e+01    1.446692e+03
  2.218511e+01    1.445003e+03
  2.223823e+01    1.444782e+03
  2.229134e+01    1.442989e+03
  2.234446e+01    1.440943e+03
  2.239758e+01    1.440525e+03
  2.245070e+01    1.438280e+03
  2.250382e+01    1.439961e+03
  2.255693e+01    1.436529e+03
  2.261005e+01    1.418308e+03
  2.266317e+01    1.406796e+03
  2.271629e+01    1.397514e+03
  2.276941e+01    1.388054e+03
  2.282253e+01    1.382031e+03
  2.287564e+01    1.376696e+03
  2.292876e+01    1.370751e+03
  2.298188e+01    1.370108e+03
  2.303500e+01    1.366806e+03
  2.308812e+01    1.362620e+03
  2.314123e+01    1.362645e+03
  2.319435e+01    1.357153e+03
  2.324747e+01    1.349684e+03
  2.330059e+01    1.345840e+03
  2.335371e+01    1.344662e+03
  2.340683e+01    1.339429e+03
  2.345994e+01    1.337951e+03
  2.351306e+01    1.335265e+03
  2.356618e+01    1.328746e+03
  2.361930e+01    1.325268e+03
  2.367242e+01    1.321000e+03
  2.372553e+01    1.311924e+03
  2.377865e+01    1.308512e+03
  2.383177e+01    1.301788e+03
  2.388489e+01    1.297343e+03
  2.393801e+01    1.293888e+03
  2.399113e+01    1.294460e+03
  2.404424e+01    1.292057e+03
  2.409736e+01    1.290785e+03
  2.415048e+01    1.286771e+03
  2.420360e+01    1.282262e+03
  2.425672e+01    1.280056e+03
  2.430983e+01    1.279025e+03
  2.436295e+01    1.275033e+03
  2.441607e+01    1.272220e+03
  2.446919e+01    1.271845e+03
  2.452231e+01    1.269165e+03
  2.457542e+01    1.267324e+03
  2.462854e+01    1.263938e+03
  2.468166e+01    1.264294e+03
  2.473478e+01    1.258295e+03
  2.478790e+01    1.253189e+03
  2.484102e+01    1.250107e+03
  2.489413e+01    1.244161e+03
  2.494725e+01    1.240092e+03
  2.500037e+01    1.235963e+03
  2.505349e+01    1.232943e+03
  2.510661e+01    1.224088e+03
  2.515972e+01    1.221555e+03
  2.521284e+01    1.223322e+03
  2.526596e+01    1.222321e+03
  2.531908e+01    1.217325e+03
  2.537220e+01    1.215192e+03
  2.542532e+01    1.211646e+03
  2.547843e+01    1.211982e+03
  2.553155e+01    1.204437e+03
  2.558467e+01    1.199246e+03
  2.563779e+01    1.189664e+03
  2.569091e+01    1.184234e+03
  2.574402e+01    1.177335e+03
  2.579714e+01    1.170919e+03
  2.585026e+01    1.162918e+03
  2.590338e+01    1.159922e+03
  2.595650e+01    1.154812e+03
  2.600962e+01    1.153426e+03
  2.606273e+01    1.153897e+03
  2.611585e+01    1.149208e+03
  2.616897e+01    1.151331e+03
  2.622209e+01    1.149640e+03
  2.627521e+01    1.142325e+03
  2.632832e+01    1.134905e+03
  2.638144e+01    1.136166e+03
  2.643456e+01    1.126365e+03
  2.648768e+01    1.110715e+03
  2.654080e+01    1.121407e+03
