# == pyFAI calibration ==
# Distance Sample to Detector: 0.2946421923531691 m
# PONI: 2.875e-01, 2.439e-01 m
# Rotations: -0.010990 -0.009181 0.000003 rad
# 
# == Fit2d calibration ==
# Distance Sample-beamCenter: 294.672 mm
# Center: x=1436.809, y=1655.851 pix
# Tilt: 0.820 deg  TiltPlanRot: -39.874 deg
# 
# Detector Pilatus 2M	 PixelSize= 1.720e-04, 1.720e-04 m
#    Detector has a mask: True 
#    Detector has a dark current: False 
#    detector has a flat field: False 
# 
# Wavelength: 2.0732883349524408e-11 m
# Mask applied: from detector
# Dark current applied: False
# Flat field applied: False
# Polarization factor: None
# Normalization factor: 1.0
# --> /gpfs/current/raw/FMue_3/FMue_3_20231024_175355_00158.dat
#        q_A^-1             I 
  3.483473e-02             nan
  8.795289e-02             nan
  1.410711e-01             nan
  1.941892e-01             nan
  2.473074e-01             nan
  3.004255e-01             nan
  3.535437e-01             nan
  4.066619e-01    1.197638e+04
  4.597800e-01    1.093391e+04
  5.128982e-01    9.262692e+03
  5.660163e-01    8.389465e+03
  6.191345e-01    8.038417e+03
  6.722527e-01    7.917859e+03
  7.253708e-01    7.952551e+03
  7.784890e-01    7.979067e+03
  8.316071e-01    8.121524e+03
  8.847253e-01    8.230849e+03
  9.378435e-01    8.415112e+03
  9.909616e-01    8.606548e+03
  1.044080e+00    8.919590e+03
  1.097198e+00    9.329821e+03
  1.150316e+00    9.942188e+03
  1.203434e+00    1.063714e+04
  1.256552e+00    1.153307e+04
  1.309671e+00    1.267310e+04
  1.362789e+00    1.375084e+04
  1.415907e+00    1.422019e+04
  1.469025e+00    1.430762e+04
  1.522143e+00    1.416740e+04
  1.575261e+00    1.358502e+04
  1.628380e+00    1.285748e+04
  1.681498e+00    1.192923e+04
  1.734616e+00    1.097505e+04
  1.787734e+00    1.015546e+04
  1.840852e+00    9.446354e+03
  1.893970e+00    8.863456e+03
  1.947089e+00    8.461503e+03
  2.000207e+00    8.158688e+03
  2.053325e+00    8.063854e+03
  2.106443e+00    8.464314e+03
  2.159561e+00    9.312719e+03
  2.212679e+00    9.589246e+03
  2.265797e+00    9.284660e+03
  2.318916e+00    8.593117e+03
  2.372034e+00    7.895647e+03
  2.425152e+00    8.155593e+03
  2.478270e+00    9.522682e+03
  2.531388e+00    1.237337e+04
  2.584506e+00    1.336567e+04
  2.637625e+00    1.067595e+04
  2.690743e+00    8.580473e+03
  2.743861e+00    7.695470e+03
  2.796979e+00    6.429074e+03
  2.850097e+00    5.525935e+03
  2.903215e+00    5.226804e+03
  2.956334e+00    5.168944e+03
  3.009452e+00    5.513413e+03
  3.062570e+00    6.920347e+03
  3.115688e+00    9.222821e+03
  3.168806e+00    9.075688e+03
  3.221924e+00    7.309346e+03
  3.275043e+00    5.760472e+03
  3.328161e+00    4.895566e+03
  3.381279e+00    4.656995e+03
  3.434397e+00    4.659797e+03
  3.487515e+00    4.740642e+03
  3.540633e+00    4.669025e+03
  3.593751e+00    4.585014e+03
  3.646870e+00    4.644998e+03
  3.699988e+00    4.801880e+03
  3.753106e+00    5.060206e+03
  3.806224e+00    5.279008e+03
  3.859342e+00    5.369076e+03
  3.912460e+00    5.627778e+03
  3.965579e+00    6.338241e+03
  4.018697e+00    7.155168e+03
  4.071815e+00    7.306081e+03
  4.124933e+00    6.820176e+03
  4.178051e+00    6.384407e+03
  4.231169e+00    6.228250e+03
  4.284288e+00    6.579825e+03
  4.337406e+00    8.009730e+03
  4.390524e+00    1.011061e+04
  4.443642e+00    1.196496e+04
  4.496760e+00    1.226069e+04
  4.549878e+00    8.590915e+03
  4.602997e+00    5.920972e+03
  4.656115e+00    5.273581e+03
  4.709233e+00    5.057356e+03
  4.762351e+00    4.998914e+03
  4.815469e+00    5.047480e+03
  4.868587e+00    5.159458e+03
  4.921705e+00    5.238375e+03
  4.974824e+00    5.326019e+03
  5.027942e+00    5.448721e+03
  5.081060e+00    5.603217e+03
  5.134178e+00    5.451629e+03
  5.187296e+00    5.060350e+03
  5.240414e+00    4.681997e+03
  5.293533e+00    4.463943e+03
  5.346651e+00    4.361958e+03
  5.399769e+00    4.292164e+03
  5.452887e+00    4.267939e+03
  5.506005e+00    4.142749e+03
  5.559123e+00    3.783686e+03
  5.612242e+00    3.605361e+03
  5.665360e+00    3.563663e+03
  5.718478e+00    3.542082e+03
  5.771596e+00    3.577341e+03
  5.824714e+00    3.667853e+03
  5.877832e+00    3.825906e+03
  5.930951e+00    4.048790e+03
  5.984069e+00    4.108622e+03
  6.037187e+00    3.956022e+03
  6.090305e+00    3.782313e+03
  6.143423e+00    3.729023e+03
  6.196541e+00    3.855317e+03
  6.249660e+00    3.995567e+03
  6.302778e+00    3.884402e+03
  6.355896e+00    3.621382e+03
  6.409014e+00    3.519135e+03
  6.462132e+00    3.455712e+03
  6.515250e+00    3.405054e+03
  6.568368e+00    3.424433e+03
  6.621487e+00    3.489324e+03
  6.674605e+00    3.582901e+03
  6.727723e+00    3.631221e+03
  6.780841e+00    3.508396e+03
  6.833959e+00    3.340329e+03
  6.887077e+00    3.235706e+03
  6.940196e+00    3.204932e+03
  6.993314e+00    3.243248e+03
  7.046432e+00    3.249521e+03
  7.099550e+00    3.172512e+03
  7.152668e+00    3.105155e+03
  7.205786e+00    3.061083e+03
  7.258905e+00    3.040882e+03
  7.312023e+00    3.095969e+03
  7.365141e+00    3.184066e+03
  7.418259e+00    3.238822e+03
  7.471377e+00    3.249579e+03
  7.524495e+00    3.304660e+03
  7.577614e+00    3.426760e+03
  7.630732e+00    3.481913e+03
  7.683850e+00    3.529915e+03
  7.736968e+00    3.607209e+03
  7.790086e+00    3.506006e+03
  7.843204e+00    3.325655e+03
  7.896322e+00    3.192667e+03
  7.949441e+00    3.142689e+03
  8.002559e+00    3.143928e+03
  8.055677e+00    3.117433e+03
  8.108795e+00    3.058549e+03
  8.161913e+00    3.013815e+03
  8.215031e+00    2.965463e+03
  8.268150e+00    2.919426e+03
  8.321268e+00    2.881882e+03
  8.374386e+00    2.858948e+03
  8.427504e+00    2.842857e+03
  8.480622e+00    2.828188e+03
  8.533740e+00    2.786220e+03
  8.586859e+00    2.817043e+03
  8.639977e+00    2.807905e+03
  8.693095e+00    2.796927e+03
  8.746213e+00    2.802976e+03
  8.799331e+00    2.790872e+03
  8.852449e+00    2.779009e+03
  8.905568e+00    2.779667e+03
  8.958686e+00    2.778973e+03
  9.011804e+00    2.774273e+03
  9.064922e+00    2.723909e+03
  9.118040e+00    2.691115e+03
  9.171158e+00    2.671675e+03
  9.224276e+00    2.637869e+03
  9.277395e+00    2.590026e+03
  9.330513e+00    2.563274e+03
  9.383631e+00    2.537441e+03
  9.436749e+00    2.524740e+03
  9.489867e+00    2.536812e+03
  9.542985e+00    2.541101e+03
  9.596104e+00    2.536900e+03
  9.649222e+00    2.544241e+03
  9.702340e+00    2.540305e+03
  9.755458e+00    2.525510e+03
  9.808576e+00    2.522417e+03
  9.861694e+00    2.520107e+03
  9.914813e+00    2.511677e+03
  9.967931e+00    2.489075e+03
  1.002105e+01    2.456457e+03
  1.007417e+01    2.431232e+03
  1.012729e+01    2.412967e+03
  1.018040e+01    2.398368e+03
  1.023352e+01    2.366910e+03
  1.028664e+01    2.332039e+03
  1.033976e+01    2.316098e+03
  1.039288e+01    2.336734e+03
  1.044599e+01    2.326226e+03
  1.049911e+01    2.328513e+03
  1.055223e+01    2.315073e+03
  1.060535e+01    2.318100e+03
  1.065847e+01    2.307445e+03
  1.071158e+01    2.298361e+03
  1.076470e+01    2.288285e+03
  1.081782e+01    2.287105e+03
  1.087094e+01    2.276610e+03
  1.092406e+01    2.285853e+03
  1.097718e+01    2.291489e+03
  1.103029e+01    2.291858e+03
  1.108341e+01    2.282661e+03
  1.113653e+01    2.264116e+03
  1.118965e+01    2.244531e+03
  1.124277e+01    2.231272e+03
  1.129588e+01    2.225107e+03
  1.134900e+01    2.220971e+03
  1.140212e+01    2.226122e+03
  1.145524e+01    2.225778e+03
  1.150836e+01    2.234693e+03
  1.156148e+01    2.232399e+03
  1.161459e+01    2.235057e+03
  1.166771e+01    2.218150e+03
  1.172083e+01    2.222559e+03
  1.177395e+01    2.201531e+03
  1.182707e+01    2.193557e+03
  1.188018e+01    2.196855e+03
  1.193330e+01    2.181751e+03
  1.198642e+01    2.162126e+03
  1.203954e+01    2.142131e+03
  1.209266e+01    2.135568e+03
  1.214578e+01    2.129428e+03
  1.219889e+01    2.133456e+03
  1.225201e+01    2.136628e+03
  1.230513e+01    2.129017e+03
  1.235825e+01    2.127560e+03
  1.241137e+01    2.111257e+03
  1.246448e+01    2.110456e+03
  1.251760e+01    2.105800e+03
  1.257072e+01    2.101353e+03
  1.262384e+01    2.107936e+03
  1.267696e+01    2.093963e+03
  1.273008e+01    2.077114e+03
  1.278319e+01    2.069591e+03
  1.283631e+01    2.057082e+03
  1.288943e+01    2.052775e+03
  1.294255e+01    2.040270e+03
  1.299567e+01    2.036621e+03
  1.304878e+01    2.031635e+03
  1.310190e+01    2.029021e+03
  1.315502e+01    2.023946e+03
  1.320814e+01    2.001460e+03
  1.326126e+01    1.978803e+03
  1.331437e+01    1.970656e+03
  1.336749e+01    1.964230e+03
  1.342061e+01    1.951221e+03
  1.347373e+01    1.974449e+03
  1.352685e+01    1.973706e+03
  1.357997e+01    1.958926e+03
  1.363308e+01    1.949721e+03
  1.368620e+01    1.941682e+03
  1.373932e+01    1.934882e+03
  1.379244e+01    1.929409e+03
  1.384556e+01    1.923341e+03
  1.389867e+01    1.914724e+03
  1.395179e+01    1.905115e+03
  1.400491e+01    1.902695e+03
  1.405803e+01    1.899590e+03
  1.411115e+01    1.892085e+03
  1.416427e+01    1.883337e+03
  1.421738e+01    1.879211e+03
  1.427050e+01    1.869024e+03
  1.432362e+01    1.871660e+03
  1.437674e+01    1.867791e+03
  1.442986e+01    1.856902e+03
  1.448297e+01    1.851480e+03
  1.453609e+01    1.844011e+03
  1.458921e+01    1.833825e+03
  1.464233e+01    1.830319e+03
  1.469545e+01    1.824340e+03
  1.474857e+01    1.805564e+03
  1.480168e+01    1.815574e+03
  1.485480e+01    1.812400e+03
  1.490792e+01    1.806539e+03
  1.496104e+01    1.799702e+03
  1.501416e+01    1.796911e+03
  1.506727e+01    1.792853e+03
  1.512039e+01    1.789761e+03
  1.517351e+01    1.802056e+03
  1.522663e+01    1.816478e+03
  1.527975e+01    1.812976e+03
  1.533286e+01    1.798180e+03
  1.538598e+01    1.788716e+03
  1.543910e+01    1.780650e+03
  1.549222e+01    1.775730e+03
  1.554534e+01    1.775322e+03
  1.559846e+01    1.773928e+03
  1.565157e+01    1.765513e+03
  1.570469e+01    1.760099e+03
  1.575781e+01    1.760062e+03
  1.581093e+01    1.753410e+03
  1.586405e+01    1.752205e+03
  1.591716e+01    1.746098e+03
  1.597028e+01    1.739274e+03
  1.602340e+01    1.725527e+03
  1.607652e+01    1.714113e+03
  1.612964e+01    1.689461e+03
  1.618276e+01    1.679114e+03
  1.623587e+01    1.680205e+03
  1.628899e+01    1.695623e+03
  1.634211e+01    1.695786e+03
  1.639523e+01    1.691120e+03
  1.644835e+01    1.690582e+03
  1.650146e+01    1.686661e+03
  1.655458e+01    1.685316e+03
  1.660770e+01    1.679923e+03
  1.666082e+01    1.674571e+03
  1.671394e+01    1.674073e+03
  1.676706e+01    1.670665e+03
  1.682017e+01    1.682360e+03
  1.687329e+01    1.672133e+03
  1.692641e+01    1.666430e+03
  1.697953e+01    1.661321e+03
  1.703265e+01    1.657595e+03
  1.708576e+01    1.654474e+03
  1.713888e+01    1.648352e+03
  1.719200e+01    1.647345e+03
  1.724512e+01    1.639234e+03
  1.729824e+01    1.639452e+03
  1.735136e+01    1.633107e+03
  1.740447e+01    1.611330e+03
  1.745759e+01    1.619102e+03
  1.751071e+01    1.619266e+03
  1.756383e+01    1.631964e+03
  1.761695e+01    1.615043e+03
  1.767006e+01    1.611668e+03
  1.772318e+01    1.603277e+03
  1.777630e+01    1.601990e+03
  1.782942e+01    1.594201e+03
  1.788254e+01    1.591563e+03
  1.793565e+01    1.587148e+03
  1.798877e+01    1.584840e+03
  1.804189e+01    1.578024e+03
  1.809501e+01    1.572916e+03
  1.814813e+01    1.570822e+03
  1.820125e+01    1.567054e+03
  1.825436e+01    1.571297e+03
  1.830748e+01    1.564462e+03
  1.836060e+01    1.559925e+03
  1.841372e+01    1.558454e+03
  1.846684e+01    1.552453e+03
  1.851995e+01    1.534166e+03
  1.857307e+01    1.519681e+03
  1.862619e+01    1.509198e+03
  1.867931e+01    1.507610e+03
  1.873243e+01    1.524577e+03
  1.878555e+01    1.527748e+03
  1.883866e+01    1.526407e+03
  1.889178e+01    1.525522e+03
  1.894490e+01    1.536883e+03
  1.899802e+01    1.526940e+03
  1.905114e+01    1.521938e+03
  1.910425e+01    1.517776e+03
  1.915737e+01    1.513646e+03
  1.921049e+01    1.509729e+03
  1.926361e+01    1.504957e+03
  1.931673e+01    1.503001e+03
  1.936985e+01    1.500866e+03
  1.942296e+01    1.496623e+03
  1.947608e+01    1.496941e+03
  1.952920e+01    1.493463e+03
  1.958232e+01    1.494605e+03
  1.963544e+01    1.498735e+03
  1.968855e+01    1.486130e+03
  1.974167e+01    1.472373e+03
  1.979479e+01    1.478936e+03
  1.984791e+01    1.476087e+03
  1.990103e+01    1.473450e+03
  1.995414e+01    1.472849e+03
  2.000726e+01    1.470166e+03
  2.006038e+01    1.466168e+03
  2.011350e+01    1.461226e+03
  2.016662e+01    1.456161e+03
  2.021974e+01    1.459180e+03
  2.027285e+01    1.466198e+03
  2.032597e+01    1.449557e+03
  2.037909e+01    1.444637e+03
  2.043221e+01    1.440224e+03
  2.048533e+01    1.439415e+03
  2.053844e+01    1.438695e+03
  2.059156e+01    1.431597e+03
  2.064468e+01    1.429474e+03
  2.069780e+01    1.409269e+03
  2.075092e+01    1.387626e+03
  2.080404e+01    1.372110e+03
  2.085715e+01    1.391727e+03
  2.091027e+01    1.416742e+03
  2.096339e+01    1.424335e+03
  2.101651e+01    1.428870e+03
  2.106963e+01    1.433001e+03
  2.112274e+01    1.436873e+03
  2.117586e+01    1.438759e+03
  2.122898e+01    1.440794e+03
  2.128210e+01    1.437734e+03
  2.133522e+01    1.438327e+03
  2.138834e+01    1.437564e+03
  2.144145e+01    1.437138e+03
  2.149457e+01    1.437599e+03
  2.154769e+01    1.435501e+03
  2.160081e+01    1.435758e+03
  2.165393e+01    1.436125e+03
  2.170704e+01    1.435437e+03
  2.176016e+01    1.425078e+03
  2.181328e+01    1.434217e+03
  2.186640e+01    1.434765e+03
  2.191952e+01    1.432636e+03
  2.197263e+01    1.431398e+03
  2.202575e+01    1.429153e+03
  2.207887e+01    1.429642e+03
  2.213199e+01    1.427894e+03
  2.218511e+01    1.427387e+03
  2.223823e+01    1.425973e+03
  2.229134e+01    1.425041e+03
  2.234446e+01    1.424290e+03
  2.239758e+01    1.423226e+03
  2.245070e+01    1.420820e+03
  2.250382e+01    1.422340e+03
  2.255693e+01    1.418045e+03
  2.261005e+01    1.401362e+03
  2.266317e+01    1.388731e+03
  2.271629e+01    1.379536e+03
  2.276941e+01    1.370882e+03
  2.282253e+01    1.363879e+03
  2.287564e+01    1.360400e+03
  2.292876e+01    1.355459e+03
  2.298188e+01    1.352308e+03
  2.303500e+01    1.349257e+03
  2.308812e+01    1.346917e+03
  2.314123e+01    1.345058e+03
  2.319435e+01    1.340775e+03
  2.324747e+01    1.336032e+03
  2.330059e+01    1.330099e+03
  2.335371e+01    1.328693e+03
  2.340683e+01    1.323869e+03
  2.345994e+01    1.320726e+03
  2.351306e+01    1.315838e+03
  2.356618e+01    1.312017e+03
  2.361930e+01    1.308190e+03
  2.367242e+01    1.301272e+03
  2.372553e+01    1.294984e+03
  2.377865e+01    1.291352e+03
  2.383177e+01    1.285312e+03
  2.388489e+01    1.282080e+03
  2.393801e+01    1.278073e+03
  2.399113e+01    1.277328e+03
  2.404424e+01    1.275707e+03
  2.409736e+01    1.275781e+03
  2.415048e+01    1.271978e+03
  2.420360e+01    1.269843e+03
  2.425672e+01    1.266469e+03
  2.430983e+01    1.262287e+03
  2.436295e+01    1.258817e+03
  2.441607e+01    1.258664e+03
  2.446919e+01    1.256866e+03
  2.452231e+01    1.255179e+03
  2.457542e+01    1.252426e+03
  2.462854e+01    1.249070e+03
  2.468166e+01    1.248639e+03
  2.473478e+01    1.243295e+03
  2.478790e+01    1.235888e+03
  2.484102e+01    1.232644e+03
  2.489413e+01    1.225963e+03
  2.494725e+01    1.225865e+03
  2.500037e+01    1.221238e+03
  2.505349e+01    1.214537e+03
  2.510661e+01    1.212204e+03
  2.515972e+01    1.207605e+03
  2.521284e+01    1.208100e+03
  2.526596e+01    1.206826e+03
  2.531908e+01    1.201856e+03
  2.537220e+01    1.200514e+03
  2.542532e+01    1.197607e+03
  2.547843e+01    1.198082e+03
  2.553155e+01    1.192110e+03
  2.558467e+01    1.184081e+03
  2.563779e+01    1.177934e+03
  2.569091e+01    1.173353e+03
  2.574402e+01    1.164774e+03
  2.579714e+01    1.157656e+03
  2.585026e+01    1.150949e+03
  2.590338e+01    1.142389e+03
  2.595650e+01    1.139554e+03
  2.600962e+01    1.142488e+03
  2.606273e+01    1.141352e+03
  2.611585e+01    1.141157e+03
  2.616897e+01    1.137126e+03
  2.622209e+01    1.135075e+03
  2.627521e+01    1.133955e+03
  2.632832e+01    1.121796e+03
  2.638144e+01    1.124406e+03
  2.643456e+01    1.117234e+03
  2.648768e+01    1.107393e+03
  2.654080e+01    1.078443e+03
