# == pyFAI calibration ==
# Distance Sample to Detector: 0.2946421923531691 m
# PONI: 2.875e-01, 2.439e-01 m
# Rotations: -0.010990 -0.009181 0.000003 rad
# 
# == Fit2d calibration ==
# Distance Sample-beamCenter: 294.672 mm
# Center: x=1436.809, y=1655.851 pix
# Tilt: 0.820 deg  TiltPlanRot: -39.874 deg
# 
# Detector Pilatus 2M	 PixelSize= 1.720e-04, 1.720e-04 m
#    Detector has a mask: True 
#    Detector has a dark current: False 
#    detector has a flat field: False 
# 
# Wavelength: 2.0732883349524408e-11 m
# Mask applied: from detector
# Dark current applied: False
# Flat field applied: False
# Polarization factor: None
# Normalization factor: 1.0
# --> /gpfs/current/raw/FMue_3/FMue_3_20231024_175355_00217.dat
#        q_A^-1             I 
  3.483473e-02             nan
  8.795289e-02             nan
  1.410711e-01             nan
  1.941892e-01             nan
  2.473074e-01             nan
  3.004255e-01             nan
  3.535437e-01             nan
  4.066619e-01    1.121212e+04
  4.597800e-01    1.028425e+04
  5.128982e-01    8.801722e+03
  5.660163e-01    8.051313e+03
  6.191345e-01    7.787429e+03
  6.722527e-01    7.707690e+03
  7.253708e-01    7.763229e+03
  7.784890e-01    7.840294e+03
  8.316071e-01    7.992890e+03
  8.847253e-01    8.116056e+03
  9.378435e-01    8.301903e+03
  9.909616e-01    8.519590e+03
  1.044080e+00    8.846781e+03
  1.097198e+00    9.270626e+03
  1.150316e+00    9.884450e+03
  1.203434e+00    1.058198e+04
  1.256552e+00    1.146539e+04
  1.309671e+00    1.263930e+04
  1.362789e+00    1.373137e+04
  1.415907e+00    1.417137e+04
  1.469025e+00    1.427649e+04
  1.522143e+00    1.414735e+04
  1.575261e+00    1.357656e+04
  1.628380e+00    1.284794e+04
  1.681498e+00    1.190951e+04
  1.734616e+00    1.096700e+04
  1.787734e+00    1.014132e+04
  1.840852e+00    9.419931e+03
  1.893970e+00    8.828606e+03
  1.947089e+00    8.420834e+03
  2.000207e+00    8.109685e+03
  2.053325e+00    8.006060e+03
  2.106443e+00    8.489682e+03
  2.159561e+00    9.653386e+03
  2.212679e+00    9.925438e+03
  2.265797e+00    9.300133e+03
  2.318916e+00    8.511515e+03
  2.372034e+00    7.793887e+03
  2.425152e+00    8.010425e+03
  2.478270e+00    9.478130e+03
  2.531388e+00    1.310557e+04
  2.584506e+00    1.423141e+04
  2.637625e+00    1.065921e+04
  2.690743e+00    8.421357e+03
  2.743861e+00    7.605401e+03
  2.796979e+00    6.364019e+03
  2.850097e+00    5.480393e+03
  2.903215e+00    5.180088e+03
  2.956334e+00    5.108964e+03
  3.009452e+00    5.442210e+03
  3.062570e+00    6.971012e+03
  3.115688e+00    9.247335e+03
  3.168806e+00    8.953365e+03
  3.221924e+00    7.220011e+03
  3.275043e+00    5.692567e+03
  3.328161e+00    4.856009e+03
  3.381279e+00    4.629679e+03
  3.434397e+00    4.642924e+03
  3.487515e+00    4.726030e+03
  3.540633e+00    4.651046e+03
  3.593751e+00    4.566049e+03
  3.646870e+00    4.624213e+03
  3.699988e+00    4.797966e+03
  3.753106e+00    5.136030e+03
  3.806224e+00    5.391443e+03
  3.859342e+00    5.359625e+03
  3.912460e+00    5.598073e+03
  3.965579e+00    6.493385e+03
  4.018697e+00    7.542264e+03
  4.071815e+00    7.461585e+03
  4.124933e+00    6.763991e+03
  4.178051e+00    6.312702e+03
  4.231169e+00    6.163101e+03
  4.284288e+00    6.544963e+03
  4.337406e+00    8.286865e+03
  4.390524e+00    1.055989e+04
  4.443642e+00    1.196356e+04
  4.496760e+00    1.211377e+04
  4.549878e+00    8.467788e+03
  4.602997e+00    5.869365e+03
  4.656115e+00    5.240332e+03
  4.709233e+00    5.043045e+03
  4.762351e+00    4.996512e+03
  4.815469e+00    5.054725e+03
  4.868587e+00    5.196601e+03
  4.921705e+00    5.268748e+03
  4.974824e+00    5.338134e+03
  5.027942e+00    5.504906e+03
  5.081060e+00    5.722107e+03
  5.134178e+00    5.500943e+03
  5.187296e+00    5.032009e+03
  5.240414e+00    4.643788e+03
  5.293533e+00    4.445438e+03
  5.346651e+00    4.369630e+03
  5.399769e+00    4.282743e+03
  5.452887e+00    4.243833e+03
  5.506005e+00    4.123126e+03
  5.559123e+00    3.771665e+03
  5.612242e+00    3.595592e+03
  5.665360e+00    3.556728e+03
  5.718478e+00    3.550953e+03
  5.771596e+00    3.619275e+03
  5.824714e+00    3.708315e+03
  5.877832e+00    3.882656e+03
  5.930951e+00    4.176673e+03
  5.984069e+00    4.190855e+03
  6.037187e+00    3.942195e+03
  6.090305e+00    3.765004e+03
  6.143423e+00    3.745378e+03
  6.196541e+00    3.899232e+03
  6.249660e+00    4.007448e+03
  6.302778e+00    3.868950e+03
  6.355896e+00    3.612210e+03
  6.409014e+00    3.512633e+03
  6.462132e+00    3.449616e+03
  6.515250e+00    3.412001e+03
  6.568368e+00    3.444333e+03
  6.621487e+00    3.515747e+03
  6.674605e+00    3.645202e+03
  6.727723e+00    3.702562e+03
  6.780841e+00    3.515392e+03
  6.833959e+00    3.321388e+03
  6.887077e+00    3.233994e+03
  6.940196e+00    3.208577e+03
  6.993314e+00    3.230300e+03
  7.046432e+00    3.233840e+03
  7.099550e+00    3.162232e+03
  7.152668e+00    3.100814e+03
  7.205786e+00    3.058811e+03
  7.258905e+00    3.048270e+03
  7.312023e+00    3.120643e+03
  7.365141e+00    3.225389e+03
  7.418259e+00    3.266592e+03
  7.471377e+00    3.256094e+03
  7.524495e+00    3.329960e+03
  7.577614e+00    3.489937e+03
  7.630732e+00    3.508537e+03
  7.683850e+00    3.513350e+03
  7.736968e+00    3.585043e+03
  7.790086e+00    3.490890e+03
  7.843204e+00    3.325423e+03
  7.896322e+00    3.207948e+03
  7.949441e+00    3.177061e+03
  8.002559e+00    3.190685e+03
  8.055677e+00    3.148641e+03
  8.108795e+00    3.062571e+03
  8.161913e+00    3.009445e+03
  8.215031e+00    2.964579e+03
  8.268150e+00    2.920665e+03
  8.321268e+00    2.885416e+03
  8.374386e+00    2.864415e+03
  8.427504e+00    2.850078e+03
  8.480622e+00    2.841726e+03
  8.533740e+00    2.802328e+03
  8.586859e+00    2.835198e+03
  8.639977e+00    2.818300e+03
  8.693095e+00    2.806294e+03
  8.746213e+00    2.820474e+03
  8.799331e+00    2.802508e+03
  8.852449e+00    2.780531e+03
  8.905568e+00    2.780833e+03
  8.958686e+00    2.783161e+03
  9.011804e+00    2.780158e+03
  9.064922e+00    2.737477e+03
  9.118040e+00    2.714427e+03
  9.171158e+00    2.687347e+03
  9.224276e+00    2.641558e+03
  9.277395e+00    2.591987e+03
  9.330513e+00    2.560714e+03
  9.383631e+00    2.537213e+03
  9.436749e+00    2.524740e+03
  9.489867e+00    2.540434e+03
  9.542985e+00    2.553348e+03
  9.596104e+00    2.554955e+03
  9.649222e+00    2.566411e+03
  9.702340e+00    2.551975e+03
  9.755458e+00    2.537802e+03
  9.808576e+00    2.533053e+03
  9.861694e+00    2.525463e+03
  9.914813e+00    2.510906e+03
  9.967931e+00    2.488614e+03
  1.002105e+01    2.464310e+03
  1.007417e+01    2.447923e+03
  1.012729e+01    2.430124e+03
  1.018040e+01    2.409972e+03
  1.023352e+01    2.369706e+03
  1.028664e+01    2.331969e+03
  1.033976e+01    2.317841e+03
  1.039288e+01    2.338942e+03
  1.044599e+01    2.330859e+03
  1.049911e+01    2.334438e+03
  1.055223e+01    2.324060e+03
  1.060535e+01    2.327412e+03
  1.065847e+01    2.314224e+03
  1.071158e+01    2.303567e+03
  1.076470e+01    2.294753e+03
  1.081782e+01    2.291226e+03
  1.087094e+01    2.282178e+03
  1.092406e+01    2.296637e+03
  1.097718e+01    2.303380e+03
  1.103029e+01    2.304131e+03
  1.108341e+01    2.291447e+03
  1.113653e+01    2.269908e+03
  1.118965e+01    2.246562e+03
  1.124277e+01    2.233410e+03
  1.129588e+01    2.228787e+03
  1.134900e+01    2.226640e+03
  1.140212e+01    2.234522e+03
  1.145524e+01    2.238236e+03
  1.150836e+01    2.246313e+03
  1.156148e+01    2.244629e+03
  1.161459e+01    2.246711e+03
  1.166771e+01    2.223739e+03
  1.172083e+01    2.223293e+03
  1.177395e+01    2.205854e+03
  1.182707e+01    2.197178e+03
  1.188018e+01    2.199968e+03
  1.193330e+01    2.187243e+03
  1.198642e+01    2.164594e+03
  1.203954e+01    2.145182e+03
  1.209266e+01    2.140808e+03
  1.214578e+01    2.136207e+03
  1.219889e+01    2.142710e+03
  1.225201e+01    2.147895e+03
  1.230513e+01    2.136901e+03
  1.235825e+01    2.133936e+03
  1.241137e+01    2.116574e+03
  1.246448e+01    2.115247e+03
  1.251760e+01    2.111181e+03
  1.257072e+01    2.104611e+03
  1.262384e+01    2.113539e+03
  1.267696e+01    2.102261e+03
  1.273008e+01    2.084934e+03
  1.278319e+01    2.074774e+03
  1.283631e+01    2.062295e+03
  1.288943e+01    2.057541e+03
  1.294255e+01    2.045916e+03
  1.299567e+01    2.043627e+03
  1.304878e+01    2.037129e+03
  1.310190e+01    2.034307e+03
  1.315502e+01    2.029808e+03
  1.320814e+01    2.006803e+03
  1.326126e+01    1.985292e+03
  1.331437e+01    1.978324e+03
  1.336749e+01    1.971638e+03
  1.342061e+01    1.959644e+03
  1.347373e+01    1.980151e+03
  1.352685e+01    1.976283e+03
  1.357997e+01    1.962954e+03
  1.363308e+01    1.954042e+03
  1.368620e+01    1.947529e+03
  1.373932e+01    1.940408e+03
  1.379244e+01    1.935308e+03
  1.384556e+01    1.928145e+03
  1.389867e+01    1.917213e+03
  1.395179e+01    1.908857e+03
  1.400491e+01    1.907877e+03
  1.405803e+01    1.903197e+03
  1.411115e+01    1.898460e+03
  1.416427e+01    1.887413e+03
  1.421738e+01    1.881416e+03
  1.427050e+01    1.872631e+03
  1.432362e+01    1.875110e+03
  1.437674e+01    1.871853e+03
  1.442986e+01    1.861505e+03
  1.448297e+01    1.854515e+03
  1.453609e+01    1.848541e+03
  1.458921e+01    1.839236e+03
  1.464233e+01    1.833627e+03
  1.469545e+01    1.829062e+03
  1.474857e+01    1.810193e+03
  1.480168e+01    1.819504e+03
  1.485480e+01    1.814508e+03
  1.490792e+01    1.809930e+03
  1.496104e+01    1.802526e+03
  1.501416e+01    1.801446e+03
  1.506727e+01    1.798718e+03
  1.512039e+01    1.794202e+03
  1.517351e+01    1.808082e+03
  1.522663e+01    1.820842e+03
  1.527975e+01    1.817963e+03
  1.533286e+01    1.803650e+03
  1.538598e+01    1.793540e+03
  1.543910e+01    1.784774e+03
  1.549222e+01    1.779985e+03
  1.554534e+01    1.778834e+03
  1.559846e+01    1.776349e+03
  1.565157e+01    1.770232e+03
  1.570469e+01    1.765068e+03
  1.575781e+01    1.761564e+03
  1.581093e+01    1.757305e+03
  1.586405e+01    1.756348e+03
  1.591716e+01    1.750151e+03
  1.597028e+01    1.744434e+03
  1.602340e+01    1.729076e+03
  1.607652e+01    1.718132e+03
  1.612964e+01    1.694836e+03
  1.618276e+01    1.682031e+03
  1.623587e+01    1.683954e+03
  1.628899e+01    1.700515e+03
  1.634211e+01    1.697908e+03
  1.639523e+01    1.692622e+03
  1.644835e+01    1.694047e+03
  1.650146e+01    1.688770e+03
  1.655458e+01    1.687251e+03
  1.660770e+01    1.683784e+03
  1.666082e+01    1.679103e+03
  1.671394e+01    1.677864e+03
  1.676706e+01    1.672245e+03
  1.682017e+01    1.685459e+03
  1.687329e+01    1.673480e+03
  1.692641e+01    1.667835e+03
  1.697953e+01    1.663850e+03
  1.703265e+01    1.659331e+03
  1.708576e+01    1.657132e+03
  1.713888e+01    1.649782e+03
  1.719200e+01    1.649140e+03
  1.724512e+01    1.640890e+03
  1.729824e+01    1.641427e+03
  1.735136e+01    1.634687e+03
  1.740447e+01    1.613168e+03
  1.745759e+01    1.620786e+03
  1.751071e+01    1.621678e+03
  1.756383e+01    1.633351e+03
  1.761695e+01    1.618142e+03
  1.767006e+01    1.614409e+03
  1.772318e+01    1.605700e+03
  1.777630e+01    1.604153e+03
  1.782942e+01    1.596477e+03
  1.788254e+01    1.592710e+03
  1.793565e+01    1.588515e+03
  1.798877e+01    1.586888e+03
  1.804189e+01    1.579996e+03
  1.809501e+01    1.576103e+03
  1.814813e+01    1.572217e+03
  1.820125e+01    1.567569e+03
  1.825436e+01    1.573841e+03
  1.830748e+01    1.567372e+03
  1.836060e+01    1.562277e+03
  1.841372e+01    1.559834e+03
  1.846684e+01    1.554787e+03
  1.851995e+01    1.535659e+03
  1.857307e+01    1.523391e+03
  1.862619e+01    1.512126e+03
  1.867931e+01    1.510461e+03
  1.873243e+01    1.528811e+03
  1.878555e+01    1.530402e+03
  1.883866e+01    1.530006e+03
  1.889178e+01    1.528029e+03
  1.894490e+01    1.539674e+03
  1.899802e+01    1.529494e+03
  1.905114e+01    1.525966e+03
  1.910425e+01    1.522257e+03
  1.915737e+01    1.516138e+03
  1.921049e+01    1.513126e+03
  1.926361e+01    1.508679e+03
  1.931673e+01    1.506094e+03
  1.936985e+01    1.502599e+03
  1.942296e+01    1.500983e+03
  1.947608e+01    1.500956e+03
  1.952920e+01    1.496929e+03
  1.958232e+01    1.497596e+03
  1.963544e+01    1.502000e+03
  1.968855e+01    1.488121e+03
  1.974167e+01    1.477071e+03
  1.979479e+01    1.480784e+03
  1.984791e+01    1.478839e+03
  1.990103e+01    1.476948e+03
  1.995414e+01    1.474507e+03
  2.000726e+01    1.472668e+03
  2.006038e+01    1.468702e+03
  2.011350e+01    1.464698e+03
  2.016662e+01    1.457948e+03
  2.021974e+01    1.461088e+03
  2.027285e+01    1.467699e+03
  2.032597e+01    1.452478e+03
  2.037909e+01    1.446625e+03
  2.043221e+01    1.443124e+03
  2.048533e+01    1.440566e+03
  2.053844e+01    1.440465e+03
  2.059156e+01    1.434590e+03
  2.064468e+01    1.432417e+03
  2.069780e+01    1.413167e+03
  2.075092e+01    1.389192e+03
  2.080404e+01    1.375359e+03
  2.085715e+01    1.393734e+03
  2.091027e+01    1.420650e+03
  2.096339e+01    1.426733e+03
  2.101651e+01    1.431311e+03
  2.106963e+01    1.435734e+03
  2.112274e+01    1.437948e+03
  2.117586e+01    1.440923e+03
  2.122898e+01    1.443592e+03
  2.128210e+01    1.441361e+03
  2.133522e+01    1.441259e+03
  2.138834e+01    1.440106e+03
  2.144145e+01    1.439375e+03
  2.149457e+01    1.439280e+03
  2.154769e+01    1.438304e+03
  2.160081e+01    1.437310e+03
  2.165393e+01    1.440009e+03
  2.170704e+01    1.438412e+03
  2.176016e+01    1.428722e+03
  2.181328e+01    1.436810e+03
  2.186640e+01    1.437727e+03
  2.191952e+01    1.437223e+03
  2.197263e+01    1.434628e+03
  2.202575e+01    1.432967e+03
  2.207887e+01    1.433104e+03
  2.213199e+01    1.431096e+03
  2.218511e+01    1.430588e+03
  2.223823e+01    1.429460e+03
  2.229134e+01    1.427624e+03
  2.234446e+01    1.425744e+03
  2.239758e+01    1.426799e+03
  2.245070e+01    1.423090e+03
  2.250382e+01    1.424681e+03
  2.255693e+01    1.422100e+03
  2.261005e+01    1.403881e+03
  2.266317e+01    1.390690e+03
  2.271629e+01    1.384006e+03
  2.276941e+01    1.373437e+03
  2.282253e+01    1.366715e+03
  2.287564e+01    1.363268e+03
  2.292876e+01    1.356939e+03
  2.298188e+01    1.355906e+03
  2.303500e+01    1.353631e+03
  2.308812e+01    1.349963e+03
  2.314123e+01    1.348994e+03
  2.319435e+01    1.343814e+03
  2.324747e+01    1.336156e+03
  2.330059e+01    1.333026e+03
  2.335371e+01    1.330832e+03
  2.340683e+01    1.324700e+03
  2.345994e+01    1.323368e+03
  2.351306e+01    1.319269e+03
  2.356618e+01    1.314578e+03
  2.361930e+01    1.308337e+03
  2.367242e+01    1.303319e+03
  2.372553e+01    1.298194e+03
  2.377865e+01    1.294345e+03
  2.383177e+01    1.289391e+03
  2.388489e+01    1.284835e+03
  2.393801e+01    1.281329e+03
  2.399113e+01    1.280576e+03
  2.404424e+01    1.280171e+03
  2.409736e+01    1.278223e+03
  2.415048e+01    1.274244e+03
  2.420360e+01    1.270162e+03
  2.425672e+01    1.267380e+03
  2.430983e+01    1.265105e+03
  2.436295e+01    1.260173e+03
  2.441607e+01    1.258957e+03
  2.446919e+01    1.259836e+03
  2.452231e+01    1.259081e+03
  2.457542e+01    1.254113e+03
  2.462854e+01    1.252599e+03
  2.468166e+01    1.250633e+03
  2.473478e+01    1.246665e+03
  2.478790e+01    1.238151e+03
  2.484102e+01    1.236330e+03
  2.489413e+01    1.230662e+03
  2.494725e+01    1.226179e+03
  2.500037e+01    1.225351e+03
  2.505349e+01    1.217616e+03
  2.510661e+01    1.212276e+03
  2.515972e+01    1.211080e+03
  2.521284e+01    1.209984e+03
  2.526596e+01    1.209960e+03
  2.531908e+01    1.207847e+03
  2.537220e+01    1.207935e+03
  2.542532e+01    1.202565e+03
  2.547843e+01    1.199033e+03
  2.553155e+01    1.195393e+03
  2.558467e+01    1.187584e+03
  2.563779e+01    1.180431e+03
  2.569091e+01    1.176508e+03
  2.574402e+01    1.163913e+03
  2.579714e+01    1.160777e+03
  2.585026e+01    1.151921e+03
  2.590338e+01    1.144808e+03
  2.595650e+01    1.142930e+03
  2.600962e+01    1.142900e+03
  2.606273e+01    1.142394e+03
  2.611585e+01    1.138869e+03
  2.616897e+01    1.137381e+03
  2.622209e+01    1.142438e+03
  2.627521e+01    1.135006e+03
  2.632832e+01    1.129070e+03
  2.638144e+01    1.123180e+03
  2.643456e+01    1.123712e+03
  2.648768e+01    1.096088e+03
  2.654080e+01    1.082799e+03
