# == pyFAI calibration ==
# Distance Sample to Detector: 0.2946421923531691 m
# PONI: 2.875e-01, 2.439e-01 m
# Rotations: -0.010990 -0.009181 0.000003 rad
# 
# == Fit2d calibration ==
# Distance Sample-beamCenter: 294.672 mm
# Center: x=1436.809, y=1655.851 pix
# Tilt: 0.820 deg  TiltPlanRot: -39.874 deg
# 
# Detector Pilatus 2M	 PixelSize= 1.720e-04, 1.720e-04 m
#    Detector has a mask: True 
#    Detector has a dark current: False 
#    detector has a flat field: False 
# 
# Wavelength: 2.0732883349524408e-11 m
# Mask applied: from detector
# Dark current applied: False
# Flat field applied: False
# Polarization factor: None
# Normalization factor: 1.0
# --> /gpfs/current/raw/FMue_3/FMue_3_20231024_175355_00031.dat
#        q_A^-1             I 
  3.483473e-02             nan
  8.795289e-02             nan
  1.410711e-01             nan
  1.941892e-01             nan
  2.473074e-01             nan
  3.004255e-01             nan
  3.535437e-01             nan
  4.066619e-01    9.769650e+03
  4.597800e-01    9.317530e+03
  5.128982e-01    8.358398e+03
  5.660163e-01    7.978849e+03
  6.191345e-01    7.966977e+03
  6.722527e-01    8.065178e+03
  7.253708e-01    8.400761e+03
  7.784890e-01    1.363956e+04
  8.316071e-01    2.734601e+04
  8.847253e-01    1.657591e+04
  9.378435e-01    9.378977e+03
  9.909616e-01    9.955927e+03
  1.044080e+00    1.013366e+04
  1.097198e+00    9.892824e+03
  1.150316e+00    1.026506e+04
  1.203434e+00    1.096846e+04
  1.256552e+00    1.198896e+04
  1.309671e+00    1.284655e+04
  1.362789e+00    1.373075e+04
  1.415907e+00    1.441866e+04
  1.469025e+00    1.465401e+04
  1.522143e+00    1.457251e+04
  1.575261e+00    1.410943e+04
  1.628380e+00    1.604342e+04
  1.681498e+00    1.772469e+04
  1.734616e+00    1.249336e+04
  1.787734e+00    1.051112e+04
  1.840852e+00    9.748972e+03
  1.893970e+00    9.206242e+03
  1.947089e+00    9.114594e+03
  2.000207e+00    8.745482e+03
  2.053325e+00    8.037902e+03
  2.106443e+00    7.808184e+03
  2.159561e+00    7.933133e+03
  2.212679e+00    8.106073e+03
  2.265797e+00    8.328760e+03
  2.318916e+00    8.207179e+03
  2.372034e+00    8.853794e+03
  2.425152e+00    1.331444e+04
  2.478270e+00    9.325851e+03
  2.531388e+00    8.091522e+03
  2.584506e+00    8.877835e+03
  2.637625e+00    8.729593e+03
  2.690743e+00    9.190078e+03
  2.743861e+00    1.252517e+04
  2.796979e+00    8.164568e+03
  2.850097e+00    5.838734e+03
  2.903215e+00    5.416365e+03
  2.956334e+00    5.239234e+03
  3.009452e+00    5.356925e+03
  3.062570e+00    6.211494e+03
  3.115688e+00    7.854063e+03
  3.168806e+00    8.836824e+03
  3.221924e+00    1.057928e+04
  3.275043e+00    9.743357e+03
  3.328161e+00    6.200949e+03
  3.381279e+00    5.950408e+03
  3.434397e+00    5.339824e+03
  3.487515e+00    5.050683e+03
  3.540633e+00    4.987815e+03
  3.593751e+00    5.103738e+03
  3.646870e+00    6.212611e+03
  3.699988e+00    5.519079e+03
  3.753106e+00    4.947652e+03
  3.806224e+00    5.121552e+03
  3.859342e+00    5.882558e+03
  3.912460e+00    5.578095e+03
  3.965579e+00    5.155000e+03
  4.018697e+00    5.485393e+03
  4.071815e+00    7.458338e+03
  4.124933e+00    8.025611e+03
  4.178051e+00    8.657494e+03
  4.231169e+00    6.794078e+03
  4.284288e+00    6.429153e+03
  4.337406e+00    7.266119e+03
  4.390524e+00    7.884751e+03
  4.443642e+00    1.024827e+04
  4.496760e+00    1.189925e+04
  4.549878e+00    9.481069e+03
  4.602997e+00    6.186108e+03
  4.656115e+00    5.210792e+03
  4.709233e+00    5.358450e+03
  4.762351e+00    6.026705e+03
  4.815469e+00    5.697072e+03
  4.868587e+00    5.340025e+03
  4.921705e+00    5.767358e+03
  4.974824e+00    5.623856e+03
  5.027942e+00    5.822482e+03
  5.081060e+00    5.695434e+03
  5.134178e+00    5.213201e+03
  5.187296e+00    5.128460e+03
  5.240414e+00    5.291328e+03
  5.293533e+00    4.910704e+03
  5.346651e+00    4.508108e+03
  5.399769e+00    4.305002e+03
  5.452887e+00    4.430614e+03
  5.506005e+00    4.593277e+03
  5.559123e+00    4.087512e+03
  5.612242e+00    3.933836e+03
  5.665360e+00    3.835986e+03
  5.718478e+00    3.552798e+03
  5.771596e+00    3.568072e+03
  5.824714e+00    3.692677e+03
  5.877832e+00    3.654638e+03
  5.930951e+00    3.728897e+03
  5.984069e+00    3.848911e+03
  6.037187e+00    3.768401e+03
  6.090305e+00    3.774987e+03
  6.143423e+00    3.723095e+03
  6.196541e+00    3.723921e+03
  6.249660e+00    4.234472e+03
  6.302778e+00    4.324940e+03
  6.355896e+00    3.984966e+03
  6.409014e+00    4.128711e+03
  6.462132e+00    3.995182e+03
  6.515250e+00    3.855090e+03
  6.568368e+00    3.674959e+03
  6.621487e+00    3.705839e+03
  6.674605e+00    3.635619e+03
  6.727723e+00    3.451877e+03
  6.780841e+00    3.390592e+03
  6.833959e+00    3.469412e+03
  6.887077e+00    3.386468e+03
  6.940196e+00    3.372729e+03
  6.993314e+00    3.434622e+03
  7.046432e+00    3.439308e+03
  7.099550e+00    3.691001e+03
  7.152668e+00    3.715790e+03
  7.205786e+00    3.431657e+03
  7.258905e+00    3.346515e+03
  7.312023e+00    3.216450e+03
  7.365141e+00    3.151176e+03
  7.418259e+00    3.121350e+03
  7.471377e+00    3.137224e+03
  7.524495e+00    3.233681e+03
  7.577614e+00    3.251588e+03
  7.630732e+00    3.312316e+03
  7.683850e+00    3.508084e+03
  7.736968e+00    3.677950e+03
  7.790086e+00    3.728969e+03
  7.843204e+00    3.617393e+03
  7.896322e+00    3.275940e+03
  7.949441e+00    3.068906e+03
  8.002559e+00    3.005706e+03
  8.055677e+00    2.992805e+03
  8.108795e+00    3.021537e+03
  8.161913e+00    3.156083e+03
  8.215031e+00    3.294750e+03
  8.268150e+00    3.123749e+03
  8.321268e+00    3.018659e+03
  8.374386e+00    3.040906e+03
  8.427504e+00    2.990420e+03
  8.480622e+00    2.956713e+03
  8.533740e+00    3.006006e+03
  8.586859e+00    3.041662e+03
  8.639977e+00    3.023536e+03
  8.693095e+00    2.965973e+03
  8.746213e+00    2.937204e+03
  8.799331e+00    2.932092e+03
  8.852449e+00    2.879726e+03
  8.905568e+00    2.865778e+03
  8.958686e+00    2.924236e+03
  9.011804e+00    2.932589e+03
  9.064922e+00    2.869721e+03
  9.118040e+00    2.748459e+03
  9.171158e+00    2.738411e+03
  9.224276e+00    2.760925e+03
  9.277395e+00    2.714836e+03
  9.330513e+00    2.680367e+03
  9.383631e+00    2.682311e+03
  9.436749e+00    2.661174e+03
  9.489867e+00    2.677434e+03
  9.542985e+00    2.689272e+03
  9.596104e+00    2.687289e+03
  9.649222e+00    2.642213e+03
  9.702340e+00    2.618207e+03
  9.755458e+00    2.624263e+03
  9.808576e+00    2.588857e+03
  9.861694e+00    2.580985e+03
  9.914813e+00    2.589490e+03
  9.967931e+00    2.595336e+03
  1.002105e+01    2.577156e+03
  1.007417e+01    2.531976e+03
  1.012729e+01    2.480335e+03
  1.018040e+01    2.473021e+03
  1.023352e+01    2.471161e+03
  1.028664e+01    2.463928e+03
  1.033976e+01    2.476095e+03
  1.039288e+01    2.488635e+03
  1.044599e+01    2.461733e+03
  1.049911e+01    2.469883e+03
  1.055223e+01    2.461615e+03
  1.060535e+01    2.441619e+03
  1.065847e+01    2.428545e+03
  1.071158e+01    2.418775e+03
  1.076470e+01    2.408360e+03
  1.081782e+01    2.437332e+03
  1.087094e+01    2.449141e+03
  1.092406e+01    2.430116e+03
  1.097718e+01    2.417933e+03
  1.103029e+01    2.383991e+03
  1.108341e+01    2.369045e+03
  1.113653e+01    2.362681e+03
  1.118965e+01    2.343271e+03
  1.124277e+01    2.333602e+03
  1.129588e+01    2.330606e+03
  1.134900e+01    2.327990e+03
  1.140212e+01    2.306402e+03
  1.145524e+01    2.284023e+03
  1.150836e+01    2.282813e+03
  1.156148e+01    2.288396e+03
  1.161459e+01    2.298042e+03
  1.166771e+01    2.283248e+03
  1.172083e+01    2.301092e+03
  1.177395e+01    2.290536e+03
  1.182707e+01    2.292531e+03
  1.188018e+01    2.305179e+03
  1.193330e+01    2.298832e+03
  1.198642e+01    2.280837e+03
  1.203954e+01    2.255385e+03
  1.209266e+01    2.245030e+03
  1.214578e+01    2.235641e+03
  1.219889e+01    2.236261e+03
  1.225201e+01    2.244372e+03
  1.230513e+01    2.257258e+03
  1.235825e+01    2.258629e+03
  1.241137e+01    2.239359e+03
  1.246448e+01    2.237170e+03
  1.251760e+01    2.244432e+03
  1.257072e+01    2.239818e+03
  1.262384e+01    2.237571e+03
  1.267696e+01    2.223574e+03
  1.273008e+01    2.211201e+03
  1.278319e+01    2.192367e+03
  1.283631e+01    2.176584e+03
  1.288943e+01    2.169030e+03
  1.294255e+01    2.156290e+03
  1.299567e+01    2.151921e+03
  1.304878e+01    2.142266e+03
  1.310190e+01    2.138671e+03
  1.315502e+01    2.138906e+03
  1.320814e+01    2.114829e+03
  1.326126e+01    2.080352e+03
  1.331437e+01    2.063124e+03
  1.336749e+01    2.049739e+03
  1.342061e+01    2.033430e+03
  1.347373e+01    2.061504e+03
  1.352685e+01    2.064022e+03
  1.357997e+01    2.055937e+03
  1.363308e+01    2.046960e+03
  1.368620e+01    2.035287e+03
  1.373932e+01    2.022299e+03
  1.379244e+01    2.012163e+03
  1.384556e+01    2.007785e+03
  1.389867e+01    2.003987e+03
  1.395179e+01    1.997655e+03
  1.400491e+01    1.994786e+03
  1.405803e+01    1.989406e+03
  1.411115e+01    1.981440e+03
  1.416427e+01    1.976759e+03
  1.421738e+01    1.976172e+03
  1.427050e+01    1.967516e+03
  1.432362e+01    1.969218e+03
  1.437674e+01    1.972340e+03
  1.442986e+01    1.961093e+03
  1.448297e+01    1.951599e+03
  1.453609e+01    1.942073e+03
  1.458921e+01    1.932857e+03
  1.464233e+01    1.929615e+03
  1.469545e+01    1.924682e+03
  1.474857e+01    1.907935e+03
  1.480168e+01    1.924717e+03
  1.485480e+01    1.919747e+03
  1.490792e+01    1.912480e+03
  1.496104e+01    1.903357e+03
  1.501416e+01    1.899598e+03
  1.506727e+01    1.893058e+03
  1.512039e+01    1.889627e+03
  1.517351e+01    1.901105e+03
  1.522663e+01    1.913654e+03
  1.527975e+01    1.910655e+03
  1.533286e+01    1.895927e+03
  1.538598e+01    1.883089e+03
  1.543910e+01    1.874414e+03
  1.549222e+01    1.872292e+03
  1.554534e+01    1.874754e+03
  1.559846e+01    1.873141e+03
  1.565157e+01    1.865683e+03
  1.570469e+01    1.858210e+03
  1.575781e+01    1.853205e+03
  1.581093e+01    1.847292e+03
  1.586405e+01    1.844165e+03
  1.591716e+01    1.839342e+03
  1.597028e+01    1.832367e+03
  1.602340e+01    1.816373e+03
  1.607652e+01    1.804530e+03
  1.612964e+01    1.781297e+03
  1.618276e+01    1.770789e+03
  1.623587e+01    1.774319e+03
  1.628899e+01    1.792375e+03
  1.634211e+01    1.788932e+03
  1.639523e+01    1.786100e+03
  1.644835e+01    1.789041e+03
  1.650146e+01    1.782588e+03
  1.655458e+01    1.782564e+03
  1.660770e+01    1.779020e+03
  1.666082e+01    1.771178e+03
  1.671394e+01    1.769396e+03
  1.676706e+01    1.764813e+03
  1.682017e+01    1.778368e+03
  1.687329e+01    1.767239e+03
  1.692641e+01    1.760151e+03
  1.697953e+01    1.755581e+03
  1.703265e+01    1.753797e+03
  1.708576e+01    1.751137e+03
  1.713888e+01    1.742075e+03
  1.719200e+01    1.740641e+03
  1.724512e+01    1.732313e+03
  1.729824e+01    1.732381e+03
  1.735136e+01    1.726000e+03
  1.740447e+01    1.702663e+03
  1.745759e+01    1.710935e+03
  1.751071e+01    1.710864e+03
  1.756383e+01    1.721884e+03
  1.761695e+01    1.705649e+03
  1.767006e+01    1.702189e+03
  1.772318e+01    1.691035e+03
  1.777630e+01    1.691087e+03
  1.782942e+01    1.683740e+03
  1.788254e+01    1.680718e+03
  1.793565e+01    1.677523e+03
  1.798877e+01    1.674204e+03
  1.804189e+01    1.666718e+03
  1.809501e+01    1.662160e+03
  1.814813e+01    1.660135e+03
  1.820125e+01    1.654746e+03
  1.825436e+01    1.660557e+03
  1.830748e+01    1.655371e+03
  1.836060e+01    1.650065e+03
  1.841372e+01    1.647961e+03
  1.846684e+01    1.643064e+03
  1.851995e+01    1.622273e+03
  1.857307e+01    1.608172e+03
  1.862619e+01    1.596438e+03
  1.867931e+01    1.594897e+03
  1.873243e+01    1.613773e+03
  1.878555e+01    1.617092e+03
  1.883866e+01    1.615286e+03
  1.889178e+01    1.614037e+03
  1.894490e+01    1.625376e+03
  1.899802e+01    1.616360e+03
  1.905114e+01    1.610099e+03
  1.910425e+01    1.605548e+03
  1.915737e+01    1.600177e+03
  1.921049e+01    1.596965e+03
  1.926361e+01    1.592321e+03
  1.931673e+01    1.589590e+03
  1.936985e+01    1.587568e+03
  1.942296e+01    1.584251e+03
  1.947608e+01    1.583810e+03
  1.952920e+01    1.579483e+03
  1.958232e+01    1.579803e+03
  1.963544e+01    1.586972e+03
  1.968855e+01    1.570310e+03
  1.974167e+01    1.557213e+03
  1.979479e+01    1.563834e+03
  1.984791e+01    1.560741e+03
  1.990103e+01    1.558639e+03
  1.995414e+01    1.558137e+03
  2.000726e+01    1.554826e+03
  2.006038e+01    1.549380e+03
  2.011350e+01    1.546478e+03
  2.016662e+01    1.540905e+03
  2.021974e+01    1.543920e+03
  2.027285e+01    1.551270e+03
  2.032597e+01    1.534342e+03
  2.037909e+01    1.529837e+03
  2.043221e+01    1.525269e+03
  2.048533e+01    1.522936e+03
  2.053844e+01    1.522446e+03
  2.059156e+01    1.516720e+03
  2.064468e+01    1.513789e+03
  2.069780e+01    1.494026e+03
  2.075092e+01    1.468708e+03
  2.080404e+01    1.455221e+03
  2.085715e+01    1.475141e+03
  2.091027e+01    1.501302e+03
  2.096339e+01    1.509285e+03
  2.101651e+01    1.514032e+03
  2.106963e+01    1.518166e+03
  2.112274e+01    1.521880e+03
  2.117586e+01    1.522960e+03
  2.122898e+01    1.525251e+03
  2.128210e+01    1.523443e+03
  2.133522e+01    1.523645e+03
  2.138834e+01    1.523186e+03
  2.144145e+01    1.521048e+03
  2.149457e+01    1.522617e+03
  2.154769e+01    1.519391e+03
  2.160081e+01    1.520919e+03
  2.165393e+01    1.521949e+03
  2.170704e+01    1.521433e+03
  2.176016e+01    1.510241e+03
  2.181328e+01    1.519410e+03
  2.186640e+01    1.520069e+03
  2.191952e+01    1.519212e+03
  2.197263e+01    1.516333e+03
  2.202575e+01    1.513642e+03
  2.207887e+01    1.514773e+03
  2.213199e+01    1.512014e+03
  2.218511e+01    1.511414e+03
  2.223823e+01    1.509951e+03
  2.229134e+01    1.508491e+03
  2.234446e+01    1.506489e+03
  2.239758e+01    1.507321e+03
  2.245070e+01    1.503927e+03
  2.250382e+01    1.506220e+03
  2.255693e+01    1.501351e+03
  2.261005e+01    1.483149e+03
  2.266317e+01    1.469800e+03
  2.271629e+01    1.461742e+03
  2.276941e+01    1.452347e+03
  2.282253e+01    1.444195e+03
  2.287564e+01    1.440700e+03
  2.292876e+01    1.434757e+03
  2.298188e+01    1.431623e+03
  2.303500e+01    1.430197e+03
  2.308812e+01    1.426341e+03
  2.314123e+01    1.425314e+03
  2.319435e+01    1.420700e+03
  2.324747e+01    1.414110e+03
  2.330059e+01    1.410524e+03
  2.335371e+01    1.408500e+03
  2.340683e+01    1.404010e+03
  2.345994e+01    1.400926e+03
  2.351306e+01    1.397466e+03
  2.356618e+01    1.392944e+03
  2.361930e+01    1.386455e+03
  2.367242e+01    1.382309e+03
  2.372553e+01    1.374509e+03
  2.377865e+01    1.369555e+03
  2.383177e+01    1.364989e+03
  2.388489e+01    1.361229e+03
  2.393801e+01    1.357301e+03
  2.399113e+01    1.354673e+03
  2.404424e+01    1.353188e+03
  2.409736e+01    1.350543e+03
  2.415048e+01    1.346466e+03
  2.420360e+01    1.343562e+03
  2.425672e+01    1.340938e+03
  2.430983e+01    1.336987e+03
  2.436295e+01    1.334486e+03
  2.441607e+01    1.332013e+03
  2.446919e+01    1.332057e+03
  2.452231e+01    1.329661e+03
  2.457542e+01    1.326242e+03
  2.462854e+01    1.323722e+03
  2.468166e+01    1.322978e+03
  2.473478e+01    1.317212e+03
  2.478790e+01    1.312166e+03
  2.484102e+01    1.309280e+03
  2.489413e+01    1.302108e+03
  2.494725e+01    1.297319e+03
  2.500037e+01    1.294524e+03
  2.505349e+01    1.288060e+03
  2.510661e+01    1.282305e+03
  2.515972e+01    1.281530e+03
  2.521284e+01    1.281004e+03
  2.526596e+01    1.280320e+03
  2.531908e+01    1.274506e+03
  2.537220e+01    1.271334e+03
  2.542532e+01    1.266262e+03
  2.547843e+01    1.263344e+03
  2.553155e+01    1.260907e+03
  2.558467e+01    1.255039e+03
  2.563779e+01    1.245259e+03
  2.569091e+01    1.241102e+03
  2.574402e+01    1.228970e+03
  2.579714e+01    1.224650e+03
  2.585026e+01    1.215014e+03
  2.590338e+01    1.215557e+03
  2.595650e+01    1.205770e+03
  2.600962e+01    1.206523e+03
  2.606273e+01    1.207702e+03
  2.611585e+01    1.203688e+03
  2.616897e+01    1.202488e+03
  2.622209e+01    1.201667e+03
  2.627521e+01    1.197806e+03
  2.632832e+01    1.186033e+03
  2.638144e+01    1.192978e+03
  2.643456e+01    1.186712e+03
  2.648768e+01    1.166514e+03
  2.654080e+01    1.142493e+03
