# == pyFAI calibration ==
# Distance Sample to Detector: 0.2946421923531691 m
# PONI: 2.875e-01, 2.439e-01 m
# Rotations: -0.010990 -0.009181 0.000003 rad
# 
# == Fit2d calibration ==
# Distance Sample-beamCenter: 294.672 mm
# Center: x=1436.809, y=1655.851 pix
# Tilt: 0.820 deg  TiltPlanRot: -39.874 deg
# 
# Detector Pilatus 2M	 PixelSize= 1.720e-04, 1.720e-04 m
#    Detector has a mask: True 
#    Detector has a dark current: False 
#    detector has a flat field: False 
# 
# Wavelength: 2.0732883349524408e-11 m
# Mask applied: from detector
# Dark current applied: False
# Flat field applied: False
# Polarization factor: None
# Normalization factor: 1.0
# --> /gpfs/current/raw/FMue_3/FMue_3_20231024_175355_00178.dat
#        q_A^-1             I 
  3.483473e-02             nan
  8.795289e-02             nan
  1.410711e-01             nan
  1.941892e-01             nan
  2.473074e-01             nan
  3.004255e-01             nan
  3.535437e-01             nan
  4.066619e-01    1.142748e+04
  4.597800e-01    1.051424e+04
  5.128982e-01    8.954101e+03
  5.660163e-01    8.164846e+03
  6.191345e-01    7.861845e+03
  6.722527e-01    7.775371e+03
  7.253708e-01    7.815840e+03
  7.784890e-01    7.881623e+03
  8.316071e-01    8.018946e+03
  8.847253e-01    8.144349e+03
  9.378435e-01    8.331648e+03
  9.909616e-01    8.546213e+03
  1.044080e+00    8.858155e+03
  1.097198e+00    9.290113e+03
  1.150316e+00    9.898872e+03
  1.203434e+00    1.060635e+04
  1.256552e+00    1.148609e+04
  1.309671e+00    1.265199e+04
  1.362789e+00    1.373079e+04
  1.415907e+00    1.419628e+04
  1.469025e+00    1.428304e+04
  1.522143e+00    1.415480e+04
  1.575261e+00    1.358398e+04
  1.628380e+00    1.284573e+04
  1.681498e+00    1.192426e+04
  1.734616e+00    1.097058e+04
  1.787734e+00    1.015197e+04
  1.840852e+00    9.428141e+03
  1.893970e+00    8.849780e+03
  1.947089e+00    8.443368e+03
  2.000207e+00    8.139235e+03
  2.053325e+00    8.034258e+03
  2.106443e+00    8.493394e+03
  2.159561e+00    9.523202e+03
  2.212679e+00    9.791152e+03
  2.265797e+00    9.301758e+03
  2.318916e+00    8.549395e+03
  2.372034e+00    7.835245e+03
  2.425152e+00    8.082054e+03
  2.478270e+00    9.520408e+03
  2.531388e+00    1.284170e+04
  2.584506e+00    1.388491e+04
  2.637625e+00    1.067771e+04
  2.690743e+00    8.477869e+03
  2.743861e+00    7.634435e+03
  2.796979e+00    6.386546e+03
  2.850097e+00    5.499541e+03
  2.903215e+00    5.197495e+03
  2.956334e+00    5.129839e+03
  3.009452e+00    5.477500e+03
  3.062570e+00    6.959735e+03
  3.115688e+00    9.234746e+03
  3.168806e+00    8.990260e+03
  3.221924e+00    7.253069e+03
  3.275043e+00    5.724452e+03
  3.328161e+00    4.876651e+03
  3.381279e+00    4.643729e+03
  3.434397e+00    4.652450e+03
  3.487515e+00    4.737358e+03
  3.540633e+00    4.659275e+03
  3.593751e+00    4.576432e+03
  3.646870e+00    4.635500e+03
  3.699988e+00    4.804689e+03
  3.753106e+00    5.114643e+03
  3.806224e+00    5.347720e+03
  3.859342e+00    5.373131e+03
  3.912460e+00    5.621209e+03
  3.965579e+00    6.443293e+03
  4.018697e+00    7.388277e+03
  4.071815e+00    7.398924e+03
  4.124933e+00    6.777859e+03
  4.178051e+00    6.345662e+03
  4.231169e+00    6.194802e+03
  4.284288e+00    6.578410e+03
  4.337406e+00    8.211581e+03
  4.390524e+00    1.039052e+04
  4.443642e+00    1.195845e+04
  4.496760e+00    1.215041e+04
  4.549878e+00    8.493059e+03
  4.602997e+00    5.887038e+03
  4.656115e+00    5.256744e+03
  4.709233e+00    5.055338e+03
  4.762351e+00    5.004563e+03
  4.815469e+00    5.057173e+03
  4.868587e+00    5.186353e+03
  4.921705e+00    5.257687e+03
  4.974824e+00    5.338987e+03
  5.027942e+00    5.488452e+03
  5.081060e+00    5.674798e+03
  5.134178e+00    5.481461e+03
  5.187296e+00    5.037242e+03
  5.240414e+00    4.658900e+03
  5.293533e+00    4.456396e+03
  5.346651e+00    4.372275e+03
  5.399769e+00    4.289708e+03
  5.452887e+00    4.254062e+03
  5.506005e+00    4.129935e+03
  5.559123e+00    3.777435e+03
  5.612242e+00    3.601721e+03
  5.665360e+00    3.564153e+03
  5.718478e+00    3.551673e+03
  5.771596e+00    3.607232e+03
  5.824714e+00    3.694441e+03
  5.877832e+00    3.864953e+03
  5.930951e+00    4.125809e+03
  5.984069e+00    4.159259e+03
  6.037187e+00    3.946028e+03
  6.090305e+00    3.769341e+03
  6.143423e+00    3.743577e+03
  6.196541e+00    3.887148e+03
  6.249660e+00    4.002409e+03
  6.302778e+00    3.871057e+03
  6.355896e+00    3.615751e+03
  6.409014e+00    3.516762e+03
  6.462132e+00    3.453162e+03
  6.515250e+00    3.411841e+03
  6.568368e+00    3.439562e+03
  6.621487e+00    3.507607e+03
  6.674605e+00    3.621668e+03
  6.727723e+00    3.673214e+03
  6.780841e+00    3.512728e+03
  6.833959e+00    3.327223e+03
  6.887077e+00    3.238716e+03
  6.940196e+00    3.210150e+03
  6.993314e+00    3.235990e+03
  7.046432e+00    3.235943e+03
  7.099550e+00    3.165785e+03
  7.152668e+00    3.107057e+03
  7.205786e+00    3.060318e+03
  7.258905e+00    3.049004e+03
  7.312023e+00    3.112690e+03
  7.365141e+00    3.215550e+03
  7.418259e+00    3.258050e+03
  7.471377e+00    3.254404e+03
  7.524495e+00    3.325923e+03
  7.577614e+00    3.465789e+03
  7.630732e+00    3.494249e+03
  7.683850e+00    3.518689e+03
  7.736968e+00    3.590170e+03
  7.790086e+00    3.492735e+03
  7.843204e+00    3.323927e+03
  7.896322e+00    3.201901e+03
  7.949441e+00    3.165611e+03
  8.002559e+00    3.175161e+03
  8.055677e+00    3.135164e+03
  8.108795e+00    3.060741e+03
  8.161913e+00    3.011721e+03
  8.215031e+00    2.964889e+03
  8.268150e+00    2.923047e+03
  8.321268e+00    2.885474e+03
  8.374386e+00    2.866065e+03
  8.427504e+00    2.848738e+03
  8.480622e+00    2.839821e+03
  8.533740e+00    2.798464e+03
  8.586859e+00    2.829507e+03
  8.639977e+00    2.815032e+03
  8.693095e+00    2.805468e+03
  8.746213e+00    2.814179e+03
  8.799331e+00    2.801100e+03
  8.852449e+00    2.778519e+03
  8.905568e+00    2.781042e+03
  8.958686e+00    2.780089e+03
  9.011804e+00    2.775474e+03
  9.064922e+00    2.732697e+03
  9.118040e+00    2.704878e+03
  9.171158e+00    2.680846e+03
  9.224276e+00    2.640002e+03
  9.277395e+00    2.590435e+03
  9.330513e+00    2.561283e+03
  9.383631e+00    2.539067e+03
  9.436749e+00    2.524805e+03
  9.489867e+00    2.541013e+03
  9.542985e+00    2.549962e+03
  9.596104e+00    2.548137e+03
  9.649222e+00    2.558332e+03
  9.702340e+00    2.546804e+03
  9.755458e+00    2.532094e+03
  9.808576e+00    2.526723e+03
  9.861694e+00    2.522816e+03
  9.914813e+00    2.510258e+03
  9.967931e+00    2.488178e+03
  1.002105e+01    2.461772e+03
  1.007417e+01    2.442814e+03
  1.012729e+01    2.424592e+03
  1.018040e+01    2.404066e+03
  1.023352e+01    2.367412e+03
  1.028664e+01    2.333064e+03
  1.033976e+01    2.317932e+03
  1.039288e+01    2.338598e+03
  1.044599e+01    2.329297e+03
  1.049911e+01    2.331200e+03
  1.055223e+01    2.321183e+03
  1.060535e+01    2.324152e+03
  1.065847e+01    2.311622e+03
  1.071158e+01    2.300557e+03
  1.076470e+01    2.291536e+03
  1.081782e+01    2.290099e+03
  1.087094e+01    2.280430e+03
  1.092406e+01    2.291309e+03
  1.097718e+01    2.299859e+03
  1.103029e+01    2.299307e+03
  1.108341e+01    2.287846e+03
  1.113653e+01    2.267051e+03
  1.118965e+01    2.247050e+03
  1.124277e+01    2.233240e+03
  1.129588e+01    2.229055e+03
  1.134900e+01    2.223148e+03
  1.140212e+01    2.231281e+03
  1.145524e+01    2.232879e+03
  1.150836e+01    2.242291e+03
  1.156148e+01    2.238661e+03
  1.161459e+01    2.240777e+03
  1.166771e+01    2.222168e+03
  1.172083e+01    2.220248e+03
  1.177395e+01    2.205073e+03
  1.182707e+01    2.195815e+03
  1.188018e+01    2.198742e+03
  1.193330e+01    2.181754e+03
  1.198642e+01    2.163929e+03
  1.203954e+01    2.143086e+03
  1.209266e+01    2.140091e+03
  1.214578e+01    2.134466e+03
  1.219889e+01    2.140253e+03
  1.225201e+01    2.142188e+03
  1.230513e+01    2.134350e+03
  1.235825e+01    2.130741e+03
  1.241137e+01    2.114972e+03
  1.246448e+01    2.111708e+03
  1.251760e+01    2.108261e+03
  1.257072e+01    2.103123e+03
  1.262384e+01    2.110749e+03
  1.267696e+01    2.097624e+03
  1.273008e+01    2.082006e+03
  1.278319e+01    2.072375e+03
  1.283631e+01    2.061296e+03
  1.288943e+01    2.055296e+03
  1.294255e+01    2.043920e+03
  1.299567e+01    2.041004e+03
  1.304878e+01    2.036517e+03
  1.310190e+01    2.031963e+03
  1.315502e+01    2.029067e+03
  1.320814e+01    2.005979e+03
  1.326126e+01    1.982955e+03
  1.331437e+01    1.974042e+03
  1.336749e+01    1.968361e+03
  1.342061e+01    1.955869e+03
  1.347373e+01    1.977617e+03
  1.352685e+01    1.974178e+03
  1.357997e+01    1.963076e+03
  1.363308e+01    1.950867e+03
  1.368620e+01    1.945883e+03
  1.373932e+01    1.939578e+03
  1.379244e+01    1.932208e+03
  1.384556e+01    1.925275e+03
  1.389867e+01    1.917899e+03
  1.395179e+01    1.908158e+03
  1.400491e+01    1.904889e+03
  1.405803e+01    1.902176e+03
  1.411115e+01    1.895479e+03
  1.416427e+01    1.886171e+03
  1.421738e+01    1.880654e+03
  1.427050e+01    1.872390e+03
  1.432362e+01    1.873751e+03
  1.437674e+01    1.870701e+03
  1.442986e+01    1.860614e+03
  1.448297e+01    1.853115e+03
  1.453609e+01    1.845706e+03
  1.458921e+01    1.837548e+03
  1.464233e+01    1.831739e+03
  1.469545e+01    1.827940e+03
  1.474857e+01    1.807343e+03
  1.480168e+01    1.817747e+03
  1.485480e+01    1.814297e+03
  1.490792e+01    1.808580e+03
  1.496104e+01    1.802072e+03
  1.501416e+01    1.800203e+03
  1.506727e+01    1.797471e+03
  1.512039e+01    1.792222e+03
  1.517351e+01    1.805662e+03
  1.522663e+01    1.818688e+03
  1.527975e+01    1.814712e+03
  1.533286e+01    1.800624e+03
  1.538598e+01    1.791993e+03
  1.543910e+01    1.784062e+03
  1.549222e+01    1.779131e+03
  1.554534e+01    1.779107e+03
  1.559846e+01    1.774896e+03
  1.565157e+01    1.768496e+03
  1.570469e+01    1.764411e+03
  1.575781e+01    1.761326e+03
  1.581093e+01    1.757498e+03
  1.586405e+01    1.753893e+03
  1.591716e+01    1.747838e+03
  1.597028e+01    1.742217e+03
  1.602340e+01    1.726856e+03
  1.607652e+01    1.716286e+03
  1.612964e+01    1.693346e+03
  1.618276e+01    1.682156e+03
  1.623587e+01    1.683339e+03
  1.628899e+01    1.699535e+03
  1.634211e+01    1.697248e+03
  1.639523e+01    1.692747e+03
  1.644835e+01    1.693737e+03
  1.650146e+01    1.688712e+03
  1.655458e+01    1.687508e+03
  1.660770e+01    1.683401e+03
  1.666082e+01    1.677841e+03
  1.671394e+01    1.676555e+03
  1.676706e+01    1.672650e+03
  1.682017e+01    1.684565e+03
  1.687329e+01    1.673435e+03
  1.692641e+01    1.667945e+03
  1.697953e+01    1.663975e+03
  1.703265e+01    1.658669e+03
  1.708576e+01    1.658061e+03
  1.713888e+01    1.648982e+03
  1.719200e+01    1.648949e+03
  1.724512e+01    1.639346e+03
  1.729824e+01    1.641738e+03
  1.735136e+01    1.633192e+03
  1.740447e+01    1.612224e+03
  1.745759e+01    1.620609e+03
  1.751071e+01    1.621588e+03
  1.756383e+01    1.631456e+03
  1.761695e+01    1.616719e+03
  1.767006e+01    1.615864e+03
  1.772318e+01    1.605715e+03
  1.777630e+01    1.604156e+03
  1.782942e+01    1.595881e+03
  1.788254e+01    1.592682e+03
  1.793565e+01    1.589009e+03
  1.798877e+01    1.587361e+03
  1.804189e+01    1.579658e+03
  1.809501e+01    1.576519e+03
  1.814813e+01    1.573433e+03
  1.820125e+01    1.567944e+03
  1.825436e+01    1.573296e+03
  1.830748e+01    1.566804e+03
  1.836060e+01    1.561697e+03
  1.841372e+01    1.559846e+03
  1.846684e+01    1.556126e+03
  1.851995e+01    1.535492e+03
  1.857307e+01    1.521213e+03
  1.862619e+01    1.511503e+03
  1.867931e+01    1.508305e+03
  1.873243e+01    1.527546e+03
  1.878555e+01    1.528333e+03
  1.883866e+01    1.527600e+03
  1.889178e+01    1.527848e+03
  1.894490e+01    1.538937e+03
  1.899802e+01    1.528284e+03
  1.905114e+01    1.524189e+03
  1.910425e+01    1.519312e+03
  1.915737e+01    1.515891e+03
  1.921049e+01    1.512095e+03
  1.926361e+01    1.507990e+03
  1.931673e+01    1.505166e+03
  1.936985e+01    1.501465e+03
  1.942296e+01    1.499969e+03
  1.947608e+01    1.499319e+03
  1.952920e+01    1.496006e+03
  1.958232e+01    1.496744e+03
  1.963544e+01    1.501940e+03
  1.968855e+01    1.487492e+03
  1.974167e+01    1.475170e+03
  1.979479e+01    1.481844e+03
  1.984791e+01    1.478797e+03
  1.990103e+01    1.475622e+03
  1.995414e+01    1.474932e+03
  2.000726e+01    1.471912e+03
  2.006038e+01    1.466901e+03
  2.011350e+01    1.462708e+03
  2.016662e+01    1.457484e+03
  2.021974e+01    1.460474e+03
  2.027285e+01    1.467426e+03
  2.032597e+01    1.451209e+03
  2.037909e+01    1.447477e+03
  2.043221e+01    1.442809e+03
  2.048533e+01    1.440712e+03
  2.053844e+01    1.438828e+03
  2.059156e+01    1.433708e+03
  2.064468e+01    1.430444e+03
  2.069780e+01    1.412488e+03
  2.075092e+01    1.389114e+03
  2.080404e+01    1.374901e+03
  2.085715e+01    1.393243e+03
  2.091027e+01    1.419940e+03
  2.096339e+01    1.425937e+03
  2.101651e+01    1.432007e+03
  2.106963e+01    1.434347e+03
  2.112274e+01    1.438962e+03
  2.117586e+01    1.440748e+03
  2.122898e+01    1.442633e+03
  2.128210e+01    1.440401e+03
  2.133522e+01    1.441162e+03
  2.138834e+01    1.438168e+03
  2.144145e+01    1.439520e+03
  2.149457e+01    1.439278e+03
  2.154769e+01    1.437551e+03
  2.160081e+01    1.436336e+03
  2.165393e+01    1.437542e+03
  2.170704e+01    1.437436e+03
  2.176016e+01    1.426497e+03
  2.181328e+01    1.436211e+03
  2.186640e+01    1.437814e+03
  2.191952e+01    1.436863e+03
  2.197263e+01    1.433350e+03
  2.202575e+01    1.432199e+03
  2.207887e+01    1.431354e+03
  2.213199e+01    1.431049e+03
  2.218511e+01    1.428531e+03
  2.223823e+01    1.427246e+03
  2.229134e+01    1.426598e+03
  2.234446e+01    1.424863e+03
  2.239758e+01    1.424996e+03
  2.245070e+01    1.421623e+03
  2.250382e+01    1.423539e+03
  2.255693e+01    1.420319e+03
  2.261005e+01    1.402298e+03
  2.266317e+01    1.391382e+03
  2.271629e+01    1.380865e+03
  2.276941e+01    1.372902e+03
  2.282253e+01    1.364373e+03
  2.287564e+01    1.362346e+03
  2.292876e+01    1.357049e+03
  2.298188e+01    1.353137e+03
  2.303500e+01    1.350228e+03
  2.308812e+01    1.348952e+03
  2.314123e+01    1.347166e+03
  2.319435e+01    1.341999e+03
  2.324747e+01    1.333990e+03
  2.330059e+01    1.332806e+03
  2.335371e+01    1.329219e+03
  2.340683e+01    1.324637e+03
  2.345994e+01    1.321011e+03
  2.351306e+01    1.318430e+03
  2.356618e+01    1.314275e+03
  2.361930e+01    1.307862e+03
  2.367242e+01    1.302520e+03
  2.372553e+01    1.297004e+03
  2.377865e+01    1.292191e+03
  2.383177e+01    1.286966e+03
  2.388489e+01    1.283698e+03
  2.393801e+01    1.277603e+03
  2.399113e+01    1.278471e+03
  2.404424e+01    1.277473e+03
  2.409736e+01    1.276581e+03
  2.415048e+01    1.274179e+03
  2.420360e+01    1.270495e+03
  2.425672e+01    1.265824e+03
  2.430983e+01    1.262761e+03
  2.436295e+01    1.260534e+03
  2.441607e+01    1.258899e+03
  2.446919e+01    1.257922e+03
  2.452231e+01    1.256687e+03
  2.457542e+01    1.252818e+03
  2.462854e+01    1.249833e+03
  2.468166e+01    1.247419e+03
  2.473478e+01    1.243783e+03
  2.478790e+01    1.235810e+03
  2.484102e+01    1.232438e+03
  2.489413e+01    1.226876e+03
  2.494725e+01    1.223017e+03
  2.500037e+01    1.220695e+03
  2.505349e+01    1.216510e+03
  2.510661e+01    1.213310e+03
  2.515972e+01    1.207925e+03
  2.521284e+01    1.206606e+03
  2.526596e+01    1.207991e+03
  2.531908e+01    1.202626e+03
  2.537220e+01    1.200374e+03
  2.542532e+01    1.197289e+03
  2.547843e+01    1.196348e+03
  2.553155e+01    1.191565e+03
  2.558467e+01    1.182109e+03
  2.563779e+01    1.177103e+03
  2.569091e+01    1.171230e+03
  2.574402e+01    1.163772e+03
  2.579714e+01    1.158647e+03
  2.585026e+01    1.151168e+03
  2.590338e+01    1.146028e+03
  2.595650e+01    1.144707e+03
  2.600962e+01    1.141124e+03
  2.606273e+01    1.139535e+03
  2.611585e+01    1.140282e+03
  2.616897e+01    1.138970e+03
  2.622209e+01    1.136748e+03
  2.627521e+01    1.132225e+03
  2.632832e+01    1.127618e+03
  2.638144e+01    1.126245e+03
  2.643456e+01    1.116002e+03
  2.648768e+01    1.101980e+03
  2.654080e+01    1.091907e+03
