# == pyFAI calibration ==
# Distance Sample to Detector: 0.2946421923531691 m
# PONI: 2.875e-01, 2.439e-01 m
# Rotations: -0.010990 -0.009181 0.000003 rad
# 
# == Fit2d calibration ==
# Distance Sample-beamCenter: 294.672 mm
# Center: x=1436.809, y=1655.851 pix
# Tilt: 0.820 deg  TiltPlanRot: -39.874 deg
# 
# Detector Pilatus 2M	 PixelSize= 1.720e-04, 1.720e-04 m
#    Detector has a mask: True 
#    Detector has a dark current: False 
#    detector has a flat field: False 
# 
# Wavelength: 2.0732883349524408e-11 m
# Mask applied: from detector
# Dark current applied: False
# Flat field applied: False
# Polarization factor: None
# Normalization factor: 1.0
# --> /gpfs/current/raw/FMue_3/FMue_3_20231024_175355_00000.dat
#        q_A^-1             I 
  3.483473e-02             nan
  8.795289e-02             nan
  1.410711e-01             nan
  1.941892e-01             nan
  2.473074e-01             nan
  3.004255e-01             nan
  3.535437e-01             nan
  4.066619e-01    9.517874e+03
  4.597800e-01    9.126411e+03
  5.128982e-01    8.208270e+03
  5.660163e-01    7.886272e+03
  6.191345e-01    7.900407e+03
  6.722527e-01    8.057097e+03
  7.253708e-01    8.410431e+03
  7.784890e-01    1.356079e+04
  8.316071e-01    2.728508e+04
  8.847253e-01    1.671751e+04
  9.378435e-01    9.408735e+03
  9.909616e-01    9.972396e+03
  1.044080e+00    1.016814e+04
  1.097198e+00    9.981272e+03
  1.150316e+00    1.036502e+04
  1.203434e+00    1.105736e+04
  1.256552e+00    1.206910e+04
  1.309671e+00    1.307886e+04
  1.362789e+00    1.391902e+04
  1.415907e+00    1.461269e+04
  1.469025e+00    1.485747e+04
  1.522143e+00    1.477053e+04
  1.575261e+00    1.431267e+04
  1.628380e+00    1.630036e+04
  1.681498e+00    1.815439e+04
  1.734616e+00    1.275056e+04
  1.787734e+00    1.064470e+04
  1.840852e+00    9.880245e+03
  1.893970e+00    9.343964e+03
  1.947089e+00    9.252205e+03
  2.000207e+00    8.896343e+03
  2.053325e+00    8.172201e+03
  2.106443e+00    7.925238e+03
  2.159561e+00    8.044113e+03
  2.212679e+00    8.215696e+03
  2.265797e+00    8.435428e+03
  2.318916e+00    8.304832e+03
  2.372034e+00    8.820925e+03
  2.425152e+00    1.359709e+04
  2.478270e+00    9.658140e+03
  2.531388e+00    8.161737e+03
  2.584506e+00    8.959677e+03
  2.637625e+00    8.858506e+03
  2.690743e+00    9.159979e+03
  2.743861e+00    1.270081e+04
  2.796979e+00    8.422707e+03
  2.850097e+00    5.900664e+03
  2.903215e+00    5.468690e+03
  2.956334e+00    5.285453e+03
  3.009452e+00    5.383917e+03
  3.062570e+00    6.223443e+03
  3.115688e+00    7.885754e+03
  3.168806e+00    8.905172e+03
  3.221924e+00    1.068054e+04
  3.275043e+00    1.018868e+04
  3.328161e+00    6.342238e+03
  3.381279e+00    6.037506e+03
  3.434397e+00    5.401990e+03
  3.487515e+00    5.089861e+03
  3.540633e+00    5.018487e+03
  3.593751e+00    5.113942e+03
  3.646870e+00    6.316123e+03
  3.699988e+00    5.669966e+03
  3.753106e+00    4.975116e+03
  3.806224e+00    5.141967e+03
  3.859342e+00    5.920734e+03
  3.912460e+00    5.680254e+03
  3.965579e+00    5.178038e+03
  4.018697e+00    5.477764e+03
  4.071815e+00    7.382217e+03
  4.124933e+00    8.187559e+03
  4.178051e+00    8.804242e+03
  4.231169e+00    7.004126e+03
  4.284288e+00    6.439128e+03
  4.337406e+00    7.334776e+03
  4.390524e+00    7.892416e+03
  4.443642e+00    1.033168e+04
  4.496760e+00    1.208779e+04
  4.549878e+00    9.791738e+03
  4.602997e+00    6.347167e+03
  4.656115e+00    5.252475e+03
  4.709233e+00    5.342100e+03
  4.762351e+00    6.071632e+03
  4.815469e+00    5.794995e+03
  4.868587e+00    5.376381e+03
  4.921705e+00    5.815197e+03
  4.974824e+00    5.729953e+03
  5.027942e+00    5.908784e+03
  5.081060e+00    5.822567e+03
  5.134178e+00    5.290101e+03
  5.187296e+00    5.153496e+03
  5.240414e+00    5.375420e+03
  5.293533e+00    5.001166e+03
  5.346651e+00    4.572000e+03
  5.399769e+00    4.341146e+03
  5.452887e+00    4.450721e+03
  5.506005e+00    4.664907e+03
  5.559123e+00    4.146489e+03
  5.612242e+00    3.960869e+03
  5.665360e+00    3.906784e+03
  5.718478e+00    3.583361e+03
  5.771596e+00    3.585720e+03
  5.824714e+00    3.735552e+03
  5.877832e+00    3.704969e+03
  5.930951e+00    3.749468e+03
  5.984069e+00    3.910633e+03
  6.037187e+00    3.814377e+03
  6.090305e+00    3.808289e+03
  6.143423e+00    3.761588e+03
  6.196541e+00    3.739882e+03
  6.249660e+00    4.230433e+03
  6.302778e+00    4.419908e+03
  6.355896e+00    4.019255e+03
  6.409014e+00    4.195479e+03
  6.462132e+00    4.090268e+03
  6.515250e+00    3.938969e+03
  6.568368e+00    3.740294e+03
  6.621487e+00    3.733160e+03
  6.674605e+00    3.708196e+03
  6.727723e+00    3.494600e+03
  6.780841e+00    3.409746e+03
  6.833959e+00    3.489765e+03
  6.887077e+00    3.427693e+03
  6.940196e+00    3.394184e+03
  6.993314e+00    3.494646e+03
  7.046432e+00    3.457934e+03
  7.099550e+00    3.729817e+03
  7.152668e+00    3.833082e+03
  7.205786e+00    3.503990e+03
  7.258905e+00    3.401138e+03
  7.312023e+00    3.263123e+03
  7.365141e+00    3.180016e+03
  7.418259e+00    3.146939e+03
  7.471377e+00    3.149926e+03
  7.524495e+00    3.262456e+03
  7.577614e+00    3.286863e+03
  7.630732e+00    3.343310e+03
  7.683850e+00    3.551498e+03
  7.736968e+00    3.735477e+03
  7.790086e+00    3.795557e+03
  7.843204e+00    3.717612e+03
  7.896322e+00    3.359062e+03
  7.949441e+00    3.104055e+03
  8.002559e+00    3.032930e+03
  8.055677e+00    3.017229e+03
  8.108795e+00    3.037939e+03
  8.161913e+00    3.175514e+03
  8.215031e+00    3.360404e+03
  8.268150e+00    3.200286e+03
  8.321268e+00    3.039363e+03
  8.374386e+00    3.081530e+03
  8.427504e+00    3.029984e+03
  8.480622e+00    2.982562e+03
  8.533740e+00    3.027499e+03
  8.586859e+00    3.092398e+03
  8.639977e+00    3.072868e+03
  8.693095e+00    3.016418e+03
  8.746213e+00    2.980599e+03
  8.799331e+00    2.966400e+03
  8.852449e+00    2.925275e+03
  8.905568e+00    2.893615e+03
  8.958686e+00    2.959538e+03
  9.011804e+00    2.972944e+03
  9.064922e+00    2.918537e+03
  9.118040e+00    2.784767e+03
  9.171158e+00    2.770732e+03
  9.224276e+00    2.807925e+03
  9.277395e+00    2.764707e+03
  9.330513e+00    2.718256e+03
  9.383631e+00    2.719482e+03
  9.436749e+00    2.693979e+03
  9.489867e+00    2.709405e+03
  9.542985e+00    2.725175e+03
  9.596104e+00    2.737492e+03
  9.649222e+00    2.692429e+03
  9.702340e+00    2.652739e+03
  9.755458e+00    2.668957e+03
  9.808576e+00    2.629899e+03
  9.861694e+00    2.611517e+03
  9.914813e+00    2.621828e+03
  9.967931e+00    2.631905e+03
  1.002105e+01    2.618663e+03
  1.007417e+01    2.577530e+03
  1.012729e+01    2.519624e+03
  1.018040e+01    2.506104e+03
  1.023352e+01    2.508432e+03
  1.028664e+01    2.495794e+03
  1.033976e+01    2.516001e+03
  1.039288e+01    2.530221e+03
  1.044599e+01    2.498344e+03
  1.049911e+01    2.503951e+03
  1.055223e+01    2.500778e+03
  1.060535e+01    2.482928e+03
  1.065847e+01    2.462488e+03
  1.071158e+01    2.452979e+03
  1.076470e+01    2.438883e+03
  1.081782e+01    2.465796e+03
  1.087094e+01    2.495328e+03
  1.092406e+01    2.476355e+03
  1.097718e+01    2.460590e+03
  1.103029e+01    2.422787e+03
  1.108341e+01    2.398849e+03
  1.113653e+01    2.396593e+03
  1.118965e+01    2.374795e+03
  1.124277e+01    2.368748e+03
  1.129588e+01    2.362040e+03
  1.134900e+01    2.365593e+03
  1.140212e+01    2.343011e+03
  1.145524e+01    2.311679e+03
  1.150836e+01    2.306238e+03
  1.156148e+01    2.314042e+03
  1.161459e+01    2.336154e+03
  1.166771e+01    2.318714e+03
  1.172083e+01    2.333544e+03
  1.177395e+01    2.324436e+03
  1.182707e+01    2.324434e+03
  1.188018e+01    2.342914e+03
  1.193330e+01    2.339370e+03
  1.198642e+01    2.319100e+03
  1.203954e+01    2.290155e+03
  1.209266e+01    2.275235e+03
  1.214578e+01    2.265607e+03
  1.219889e+01    2.266555e+03
  1.225201e+01    2.273307e+03
  1.230513e+01    2.295193e+03
  1.235825e+01    2.302282e+03
  1.241137e+01    2.282464e+03
  1.246448e+01    2.273131e+03
  1.251760e+01    2.277472e+03
  1.257072e+01    2.277281e+03
  1.262384e+01    2.273193e+03
  1.267696e+01    2.255774e+03
  1.273008e+01    2.249365e+03
  1.278319e+01    2.231416e+03
  1.283631e+01    2.208993e+03
  1.288943e+01    2.200198e+03
  1.294255e+01    2.188097e+03
  1.299567e+01    2.183804e+03
  1.304878e+01    2.173564e+03
  1.310190e+01    2.170679e+03
  1.315502e+01    2.172656e+03
  1.320814e+01    2.150162e+03
  1.326126e+01    2.114804e+03
  1.331437e+01    2.096325e+03
  1.336749e+01    2.082639e+03
  1.342061e+01    2.064740e+03
  1.347373e+01    2.090181e+03
  1.352685e+01    2.094418e+03
  1.357997e+01    2.089166e+03
  1.363308e+01    2.081888e+03
  1.368620e+01    2.071247e+03
  1.373932e+01    2.053196e+03
  1.379244e+01    2.038319e+03
  1.384556e+01    2.031900e+03
  1.389867e+01    2.030833e+03
  1.395179e+01    2.026871e+03
  1.400491e+01    2.024600e+03
  1.405803e+01    2.020649e+03
  1.411115e+01    2.008283e+03
  1.416427e+01    2.003155e+03
  1.421738e+01    2.005377e+03
  1.427050e+01    1.996529e+03
  1.432362e+01    1.998559e+03
  1.437674e+01    2.000982e+03
  1.442986e+01    1.992904e+03
  1.448297e+01    1.982412e+03
  1.453609e+01    1.973204e+03
  1.458921e+01    1.961784e+03
  1.464233e+01    1.956746e+03
  1.469545e+01    1.950784e+03
  1.474857e+01    1.937682e+03
  1.480168e+01    1.956454e+03
  1.485480e+01    1.951078e+03
  1.490792e+01    1.943304e+03
  1.496104e+01    1.931162e+03
  1.501416e+01    1.928537e+03
  1.506727e+01    1.920965e+03
  1.512039e+01    1.917385e+03
  1.517351e+01    1.930038e+03
  1.522663e+01    1.942316e+03
  1.527975e+01    1.939965e+03
  1.533286e+01    1.925189e+03
  1.538598e+01    1.913845e+03
  1.543910e+01    1.901190e+03
  1.549222e+01    1.897507e+03
  1.554534e+01    1.901982e+03
  1.559846e+01    1.901138e+03
  1.565157e+01    1.893877e+03
  1.570469e+01    1.886674e+03
  1.575781e+01    1.881410e+03
  1.581093e+01    1.874497e+03
  1.586405e+01    1.873866e+03
  1.591716e+01    1.867260e+03
  1.597028e+01    1.860783e+03
  1.602340e+01    1.843195e+03
  1.607652e+01    1.830362e+03
  1.612964e+01    1.805803e+03
  1.618276e+01    1.796578e+03
  1.623587e+01    1.799867e+03
  1.628899e+01    1.815586e+03
  1.634211e+01    1.814979e+03
  1.639523e+01    1.811472e+03
  1.644835e+01    1.814236e+03
  1.650146e+01    1.807689e+03
  1.655458e+01    1.809592e+03
  1.660770e+01    1.804401e+03
  1.666082e+01    1.798201e+03
  1.671394e+01    1.795571e+03
  1.676706e+01    1.791538e+03
  1.682017e+01    1.803617e+03
  1.687329e+01    1.792705e+03
  1.692641e+01    1.786782e+03
  1.697953e+01    1.782004e+03
  1.703265e+01    1.777725e+03
  1.708576e+01    1.776838e+03
  1.713888e+01    1.767230e+03
  1.719200e+01    1.766262e+03
  1.724512e+01    1.756177e+03
  1.729824e+01    1.756364e+03
  1.735136e+01    1.750755e+03
  1.740447e+01    1.726370e+03
  1.745759e+01    1.735719e+03
  1.751071e+01    1.734742e+03
  1.756383e+01    1.744089e+03
  1.761695e+01    1.727526e+03
  1.767006e+01    1.724119e+03
  1.772318e+01    1.715554e+03
  1.777630e+01    1.714335e+03
  1.782942e+01    1.706354e+03
  1.788254e+01    1.704984e+03
  1.793565e+01    1.701456e+03
  1.798877e+01    1.699660e+03
  1.804189e+01    1.690446e+03
  1.809501e+01    1.687102e+03
  1.814813e+01    1.684312e+03
  1.820125e+01    1.678014e+03
  1.825436e+01    1.684066e+03
  1.830748e+01    1.677747e+03
  1.836060e+01    1.673891e+03
  1.841372e+01    1.671085e+03
  1.846684e+01    1.666419e+03
  1.851995e+01    1.646323e+03
  1.857307e+01    1.629959e+03
  1.862619e+01    1.620100e+03
  1.867931e+01    1.617773e+03
  1.873243e+01    1.637343e+03
  1.878555e+01    1.641441e+03
  1.883866e+01    1.641330e+03
  1.889178e+01    1.638258e+03
  1.894490e+01    1.650255e+03
  1.899802e+01    1.639606e+03
  1.905114e+01    1.634609e+03
  1.910425e+01    1.628627e+03
  1.915737e+01    1.623972e+03
  1.921049e+01    1.620277e+03
  1.926361e+01    1.616034e+03
  1.931673e+01    1.612417e+03
  1.936985e+01    1.611007e+03
  1.942296e+01    1.609240e+03
  1.947608e+01    1.607719e+03
  1.952920e+01    1.603976e+03
  1.958232e+01    1.605109e+03
  1.963544e+01    1.609630e+03
  1.968855e+01    1.593766e+03
  1.974167e+01    1.582325e+03
  1.979479e+01    1.586647e+03
  1.984791e+01    1.586107e+03
  1.990103e+01    1.582949e+03
  1.995414e+01    1.580651e+03
  2.000726e+01    1.577508e+03
  2.006038e+01    1.574495e+03
  2.011350e+01    1.570683e+03
  2.016662e+01    1.564824e+03
  2.021974e+01    1.567846e+03
  2.027285e+01    1.574175e+03
  2.032597e+01    1.557166e+03
  2.037909e+01    1.552733e+03
  2.043221e+01    1.547320e+03
  2.048533e+01    1.547517e+03
  2.053844e+01    1.546559e+03
  2.059156e+01    1.540007e+03
  2.064468e+01    1.537746e+03
  2.069780e+01    1.517410e+03
  2.075092e+01    1.491222e+03
  2.080404e+01    1.475783e+03
  2.085715e+01    1.497224e+03
  2.091027e+01    1.526034e+03
  2.096339e+01    1.532818e+03
  2.101651e+01    1.538323e+03
  2.106963e+01    1.541437e+03
  2.112274e+01    1.546355e+03
  2.117586e+01    1.547621e+03
  2.122898e+01    1.551347e+03
  2.128210e+01    1.547822e+03
  2.133522e+01    1.547986e+03
  2.138834e+01    1.547042e+03
  2.144145e+01    1.546174e+03
  2.149457e+01    1.546342e+03
  2.154769e+01    1.544576e+03
  2.160081e+01    1.545110e+03
  2.165393e+01    1.545574e+03
  2.170704e+01    1.545776e+03
  2.176016e+01    1.535338e+03
  2.181328e+01    1.544139e+03
  2.186640e+01    1.545062e+03
  2.191952e+01    1.541696e+03
  2.197263e+01    1.540638e+03
  2.202575e+01    1.538337e+03
  2.207887e+01    1.536114e+03
  2.213199e+01    1.534397e+03
  2.218511e+01    1.532902e+03
  2.223823e+01    1.533987e+03
  2.229134e+01    1.531632e+03
  2.234446e+01    1.529783e+03
  2.239758e+01    1.528674e+03
  2.245070e+01    1.526521e+03
  2.250382e+01    1.528683e+03
  2.255693e+01    1.526721e+03
  2.261005e+01    1.506839e+03
  2.266317e+01    1.493690e+03
  2.271629e+01    1.486071e+03
  2.276941e+01    1.474956e+03
  2.282253e+01    1.467472e+03
  2.287564e+01    1.462904e+03
  2.292876e+01    1.456760e+03
  2.298188e+01    1.455008e+03
  2.303500e+01    1.452453e+03
  2.308812e+01    1.448094e+03
  2.314123e+01    1.447622e+03
  2.319435e+01    1.442486e+03
  2.324747e+01    1.435020e+03
  2.330059e+01    1.432357e+03
  2.335371e+01    1.429323e+03
  2.340683e+01    1.423374e+03
  2.345994e+01    1.420280e+03
  2.351306e+01    1.418412e+03
  2.356618e+01    1.413531e+03
  2.361930e+01    1.408020e+03
  2.367242e+01    1.403859e+03
  2.372553e+01    1.397097e+03
  2.377865e+01    1.391985e+03
  2.383177e+01    1.385913e+03
  2.388489e+01    1.381583e+03
  2.393801e+01    1.377858e+03
  2.399113e+01    1.376110e+03
  2.404424e+01    1.375322e+03
  2.409736e+01    1.373406e+03
  2.415048e+01    1.367496e+03
  2.420360e+01    1.364295e+03
  2.425672e+01    1.362574e+03
  2.430983e+01    1.358063e+03
  2.436295e+01    1.356241e+03
  2.441607e+01    1.351725e+03
  2.446919e+01    1.349837e+03
  2.452231e+01    1.350612e+03
  2.457542e+01    1.347773e+03
  2.462854e+01    1.344261e+03
  2.468166e+01    1.344248e+03
  2.473478e+01    1.337577e+03
  2.478790e+01    1.331465e+03
  2.484102e+01    1.328554e+03
  2.489413e+01    1.324762e+03
  2.494725e+01    1.319618e+03
  2.500037e+01    1.317657e+03
  2.505349e+01    1.309314e+03
  2.510661e+01    1.303877e+03
  2.515972e+01    1.303597e+03
  2.521284e+01    1.298908e+03
  2.526596e+01    1.300732e+03
  2.531908e+01    1.293695e+03
  2.537220e+01    1.294004e+03
  2.542532e+01    1.287939e+03
  2.547843e+01    1.285620e+03
  2.553155e+01    1.278602e+03
  2.558467e+01    1.274510e+03
  2.563779e+01    1.263100e+03
  2.569091e+01    1.259533e+03
  2.574402e+01    1.251160e+03
  2.579714e+01    1.242157e+03
  2.585026e+01    1.238939e+03
  2.590338e+01    1.227771e+03
  2.595650e+01    1.228694e+03
  2.600962e+01    1.225509e+03
  2.606273e+01    1.224783e+03
  2.611585e+01    1.223666e+03
  2.616897e+01    1.222954e+03
  2.622209e+01    1.222475e+03
  2.627521e+01    1.219629e+03
  2.632832e+01    1.210732e+03
  2.638144e+01    1.208157e+03
  2.643456e+01    1.201617e+03
  2.648768e+01    1.179412e+03
  2.654080e+01    1.188921e+03
