# == pyFAI calibration ==
# Distance Sample to Detector: 0.2946421923531691 m
# PONI: 2.875e-01, 2.439e-01 m
# Rotations: -0.010990 -0.009181 0.000003 rad
# 
# == Fit2d calibration ==
# Distance Sample-beamCenter: 294.672 mm
# Center: x=1436.809, y=1655.851 pix
# Tilt: 0.820 deg  TiltPlanRot: -39.874 deg
# 
# Detector Pilatus 2M	 PixelSize= 1.720e-04, 1.720e-04 m
#    Detector has a mask: True 
#    Detector has a dark current: False 
#    detector has a flat field: False 
# 
# Wavelength: 2.0732883349524408e-11 m
# Mask applied: from detector
# Dark current applied: False
# Flat field applied: False
# Polarization factor: None
# Normalization factor: 1.0
# --> /gpfs/current/raw/FMue_3/FMue_3_20231024_175355_00214.dat
#        q_A^-1             I 
  3.483473e-02             nan
  8.795289e-02             nan
  1.410711e-01             nan
  1.941892e-01             nan
  2.473074e-01             nan
  3.004255e-01             nan
  3.535437e-01             nan
  4.066619e-01    1.111691e+04
  4.597800e-01    1.018624e+04
  5.128982e-01    8.709435e+03
  5.660163e-01    7.960247e+03
  6.191345e-01    7.702806e+03
  6.722527e-01    7.636740e+03
  7.253708e-01    7.692222e+03
  7.784890e-01    7.752021e+03
  8.316071e-01    7.905469e+03
  8.847253e-01    8.026538e+03
  9.378435e-01    8.214231e+03
  9.909616e-01    8.437830e+03
  1.044080e+00    8.751139e+03
  1.097198e+00    9.184121e+03
  1.150316e+00    9.783790e+03
  1.203434e+00    1.047324e+04
  1.256552e+00    1.134828e+04
  1.309671e+00    1.252399e+04
  1.362789e+00    1.359249e+04
  1.415907e+00    1.401826e+04
  1.469025e+00    1.412170e+04
  1.522143e+00    1.400731e+04
  1.575261e+00    1.343836e+04
  1.628380e+00    1.269882e+04
  1.681498e+00    1.178804e+04
  1.734616e+00    1.084255e+04
  1.787734e+00    1.002601e+04
  1.840852e+00    9.327198e+03
  1.893970e+00    8.741561e+03
  1.947089e+00    8.335588e+03
  2.000207e+00    8.029585e+03
  2.053325e+00    7.932170e+03
  2.106443e+00    8.407903e+03
  2.159561e+00    9.563394e+03
  2.212679e+00    9.814927e+03
  2.265797e+00    9.198834e+03
  2.318916e+00    8.413179e+03
  2.372034e+00    7.716293e+03
  2.425152e+00    7.936847e+03
  2.478270e+00    9.386923e+03
  2.531388e+00    1.297436e+04
  2.584506e+00    1.404173e+04
  2.637625e+00    1.052288e+04
  2.690743e+00    8.324254e+03
  2.743861e+00    7.511549e+03
  2.796979e+00    6.285746e+03
  2.850097e+00    5.417719e+03
  2.903215e+00    5.119012e+03
  2.956334e+00    5.055320e+03
  3.009452e+00    5.389638e+03
  3.062570e+00    6.909874e+03
  3.115688e+00    9.162685e+03
  3.168806e+00    8.840588e+03
  3.221924e+00    7.130703e+03
  3.275043e+00    5.626911e+03
  3.328161e+00    4.807580e+03
  3.381279e+00    4.580751e+03
  3.434397e+00    4.589056e+03
  3.487515e+00    4.673392e+03
  3.540633e+00    4.597042e+03
  3.593751e+00    4.516375e+03
  3.646870e+00    4.573439e+03
  3.699988e+00    4.748443e+03
  3.753106e+00    5.082002e+03
  3.806224e+00    5.324871e+03
  3.859342e+00    5.304416e+03
  3.912460e+00    5.535801e+03
  3.965579e+00    6.427178e+03
  4.018697e+00    7.455938e+03
  4.071815e+00    7.368973e+03
  4.124933e+00    6.678271e+03
  4.178051e+00    6.246960e+03
  4.231169e+00    6.097259e+03
  4.284288e+00    6.478186e+03
  4.337406e+00    8.208905e+03
  4.390524e+00    1.044319e+04
  4.443642e+00    1.183912e+04
  4.496760e+00    1.197058e+04
  4.549878e+00    8.342294e+03
  4.602997e+00    5.799776e+03
  4.656115e+00    5.186419e+03
  4.709233e+00    4.987540e+03
  4.762351e+00    4.940792e+03
  4.815469e+00    4.998152e+03
  4.868587e+00    5.141569e+03
  4.921705e+00    5.209603e+03
  4.974824e+00    5.280095e+03
  5.027942e+00    5.440636e+03
  5.081060e+00    5.654833e+03
  5.134178e+00    5.442279e+03
  5.187296e+00    4.978555e+03
  5.240414e+00    4.592952e+03
  5.293533e+00    4.397501e+03
  5.346651e+00    4.321399e+03
  5.399769e+00    4.237493e+03
  5.452887e+00    4.200772e+03
  5.506005e+00    4.077449e+03
  5.559123e+00    3.730976e+03
  5.612242e+00    3.555386e+03
  5.665360e+00    3.517217e+03
  5.718478e+00    3.512088e+03
  5.771596e+00    3.579711e+03
  5.824714e+00    3.664126e+03
  5.877832e+00    3.839992e+03
  5.930951e+00    4.129781e+03
  5.984069e+00    4.139693e+03
  6.037187e+00    3.896691e+03
  6.090305e+00    3.720428e+03
  6.143423e+00    3.704617e+03
  6.196541e+00    3.856756e+03
  6.249660e+00    3.963114e+03
  6.302778e+00    3.824095e+03
  6.355896e+00    3.569134e+03
  6.409014e+00    3.473917e+03
  6.462132e+00    3.410553e+03
  6.515250e+00    3.374737e+03
  6.568368e+00    3.403743e+03
  6.621487e+00    3.476290e+03
  6.674605e+00    3.605945e+03
  6.727723e+00    3.657226e+03
  6.780841e+00    3.477183e+03
  6.833959e+00    3.283500e+03
  6.887077e+00    3.197342e+03
  6.940196e+00    3.175426e+03
  6.993314e+00    3.196823e+03
  7.046432e+00    3.194423e+03
  7.099550e+00    3.126705e+03
  7.152668e+00    3.068091e+03
  7.205786e+00    3.022275e+03
  7.258905e+00    3.017402e+03
  7.312023e+00    3.084081e+03
  7.365141e+00    3.191605e+03
  7.418259e+00    3.230787e+03
  7.471377e+00    3.221474e+03
  7.524495e+00    3.297044e+03
  7.577614e+00    3.450998e+03
  7.630732e+00    3.469325e+03
  7.683850e+00    3.477063e+03
  7.736968e+00    3.546469e+03
  7.790086e+00    3.449018e+03
  7.843204e+00    3.286146e+03
  7.896322e+00    3.172491e+03
  7.949441e+00    3.142165e+03
  8.002559e+00    3.157369e+03
  8.055677e+00    3.111721e+03
  8.108795e+00    3.028470e+03
  8.161913e+00    2.975849e+03
  8.215031e+00    2.933913e+03
  8.268150e+00    2.891646e+03
  8.321268e+00    2.854180e+03
  8.374386e+00    2.833623e+03
  8.427504e+00    2.819826e+03
  8.480622e+00    2.809555e+03
  8.533740e+00    2.770314e+03
  8.586859e+00    2.801980e+03
  8.639977e+00    2.787867e+03
  8.693095e+00    2.775587e+03
  8.746213e+00    2.789245e+03
  8.799331e+00    2.775925e+03
  8.852449e+00    2.749665e+03
  8.905568e+00    2.749439e+03
  8.958686e+00    2.750575e+03
  9.011804e+00    2.747588e+03
  9.064922e+00    2.707745e+03
  9.118040e+00    2.684598e+03
  9.171158e+00    2.658845e+03
  9.224276e+00    2.614103e+03
  9.277395e+00    2.562088e+03
  9.330513e+00    2.533259e+03
  9.383631e+00    2.509418e+03
  9.436749e+00    2.496359e+03
  9.489867e+00    2.514927e+03
  9.542985e+00    2.525085e+03
  9.596104e+00    2.526717e+03
  9.649222e+00    2.537040e+03
  9.702340e+00    2.525573e+03
  9.755458e+00    2.509716e+03
  9.808576e+00    2.505297e+03
  9.861694e+00    2.498093e+03
  9.914813e+00    2.486024e+03
  9.967931e+00    2.461760e+03
  1.002105e+01    2.439622e+03
  1.007417e+01    2.420927e+03
  1.012729e+01    2.406541e+03
  1.018040e+01    2.381596e+03
  1.023352e+01    2.343371e+03
  1.028664e+01    2.306113e+03
  1.033976e+01    2.292561e+03
  1.039288e+01    2.314539e+03
  1.044599e+01    2.305016e+03
  1.049911e+01    2.307181e+03
  1.055223e+01    2.300046e+03
  1.060535e+01    2.300538e+03
  1.065847e+01    2.288111e+03
  1.071158e+01    2.277681e+03
  1.076470e+01    2.267947e+03
  1.081782e+01    2.265445e+03
  1.087094e+01    2.256658e+03
  1.092406e+01    2.271410e+03
  1.097718e+01    2.277148e+03
  1.103029e+01    2.279071e+03
  1.108341e+01    2.266796e+03
  1.113653e+01    2.244202e+03
  1.118965e+01    2.223899e+03
  1.124277e+01    2.209797e+03
  1.129588e+01    2.206087e+03
  1.134900e+01    2.201319e+03
  1.140212e+01    2.209077e+03
  1.145524e+01    2.212140e+03
  1.150836e+01    2.221625e+03
  1.156148e+01    2.220275e+03
  1.161459e+01    2.219830e+03
  1.166771e+01    2.200650e+03
  1.172083e+01    2.198860e+03
  1.177395e+01    2.181458e+03
  1.182707e+01    2.174339e+03
  1.188018e+01    2.175698e+03
  1.193330e+01    2.159451e+03
  1.198642e+01    2.140341e+03
  1.203954e+01    2.120160e+03
  1.209266e+01    2.117970e+03
  1.214578e+01    2.112221e+03
  1.219889e+01    2.118903e+03
  1.225201e+01    2.122416e+03
  1.230513e+01    2.115850e+03
  1.235825e+01    2.110278e+03
  1.241137e+01    2.092961e+03
  1.246448e+01    2.090829e+03
  1.251760e+01    2.086485e+03
  1.257072e+01    2.083004e+03
  1.262384e+01    2.088776e+03
  1.267696e+01    2.076621e+03
  1.273008e+01    2.060677e+03
  1.278319e+01    2.051707e+03
  1.283631e+01    2.039859e+03
  1.288943e+01    2.034925e+03
  1.294255e+01    2.023368e+03
  1.299567e+01    2.020673e+03
  1.304878e+01    2.013637e+03
  1.310190e+01    2.011033e+03
  1.315502e+01    2.007850e+03
  1.320814e+01    1.986539e+03
  1.326126e+01    1.962575e+03
  1.331437e+01    1.956632e+03
  1.336749e+01    1.950350e+03
  1.342061e+01    1.935924e+03
  1.347373e+01    1.958428e+03
  1.352685e+01    1.954636e+03
  1.357997e+01    1.941523e+03
  1.363308e+01    1.930891e+03
  1.368620e+01    1.927052e+03
  1.373932e+01    1.919842e+03
  1.379244e+01    1.914020e+03
  1.384556e+01    1.905918e+03
  1.389867e+01    1.896441e+03
  1.395179e+01    1.888056e+03
  1.400491e+01    1.885835e+03
  1.405803e+01    1.884125e+03
  1.411115e+01    1.878025e+03
  1.416427e+01    1.866023e+03
  1.421738e+01    1.861823e+03
  1.427050e+01    1.853763e+03
  1.432362e+01    1.855575e+03
  1.437674e+01    1.850847e+03
  1.442986e+01    1.840311e+03
  1.448297e+01    1.834195e+03
  1.453609e+01    1.829151e+03
  1.458921e+01    1.818898e+03
  1.464233e+01    1.814506e+03
  1.469545e+01    1.808653e+03
  1.474857e+01    1.789179e+03
  1.480168e+01    1.799866e+03
  1.485480e+01    1.794587e+03
  1.490792e+01    1.791492e+03
  1.496104e+01    1.783380e+03
  1.501416e+01    1.782308e+03
  1.506727e+01    1.778634e+03
  1.512039e+01    1.774471e+03
  1.517351e+01    1.787578e+03
  1.522663e+01    1.799727e+03
  1.527975e+01    1.798379e+03
  1.533286e+01    1.782735e+03
  1.538598e+01    1.774493e+03
  1.543910e+01    1.766076e+03
  1.549222e+01    1.761458e+03
  1.554534e+01    1.760022e+03
  1.559846e+01    1.757525e+03
  1.565157e+01    1.750785e+03
  1.570469e+01    1.746068e+03
  1.575781e+01    1.744266e+03
  1.581093e+01    1.739716e+03
  1.586405e+01    1.737102e+03
  1.591716e+01    1.730570e+03
  1.597028e+01    1.724863e+03
  1.602340e+01    1.709149e+03
  1.607652e+01    1.697735e+03
  1.612964e+01    1.675738e+03
  1.618276e+01    1.664302e+03
  1.623587e+01    1.665241e+03
  1.628899e+01    1.682911e+03
  1.634211e+01    1.679823e+03
  1.639523e+01    1.673293e+03
  1.644835e+01    1.677454e+03
  1.650146e+01    1.671278e+03
  1.655458e+01    1.669037e+03
  1.660770e+01    1.665157e+03
  1.666082e+01    1.659775e+03
  1.671394e+01    1.659071e+03
  1.676706e+01    1.654067e+03
  1.682017e+01    1.665936e+03
  1.687329e+01    1.655944e+03
  1.692641e+01    1.650245e+03
  1.697953e+01    1.646780e+03
  1.703265e+01    1.641587e+03
  1.708576e+01    1.640995e+03
  1.713888e+01    1.632015e+03
  1.719200e+01    1.630590e+03
  1.724512e+01    1.622562e+03
  1.729824e+01    1.621673e+03
  1.735136e+01    1.617563e+03
  1.740447e+01    1.595756e+03
  1.745759e+01    1.603006e+03
  1.751071e+01    1.603575e+03
  1.756383e+01    1.616335e+03
  1.761695e+01    1.599789e+03
  1.767006e+01    1.597684e+03
  1.772318e+01    1.588110e+03
  1.777630e+01    1.588359e+03
  1.782942e+01    1.579042e+03
  1.788254e+01    1.575068e+03
  1.793565e+01    1.572419e+03
  1.798877e+01    1.570466e+03
  1.804189e+01    1.563883e+03
  1.809501e+01    1.558362e+03
  1.814813e+01    1.556909e+03
  1.820125e+01    1.550208e+03
  1.825436e+01    1.556133e+03
  1.830748e+01    1.551134e+03
  1.836060e+01    1.544472e+03
  1.841372e+01    1.542072e+03
  1.846684e+01    1.537622e+03
  1.851995e+01    1.518483e+03
  1.857307e+01    1.505069e+03
  1.862619e+01    1.495359e+03
  1.867931e+01    1.493098e+03
  1.873243e+01    1.512184e+03
  1.878555e+01    1.514040e+03
  1.883866e+01    1.512246e+03
  1.889178e+01    1.512051e+03
  1.894490e+01    1.523508e+03
  1.899802e+01    1.512971e+03
  1.905114e+01    1.509155e+03
  1.910425e+01    1.503257e+03
  1.915737e+01    1.500778e+03
  1.921049e+01    1.495901e+03
  1.926361e+01    1.493328e+03
  1.931673e+01    1.488909e+03
  1.936985e+01    1.487046e+03
  1.942296e+01    1.484525e+03
  1.947608e+01    1.484406e+03
  1.952920e+01    1.480431e+03
  1.958232e+01    1.481733e+03
  1.963544e+01    1.485625e+03
  1.968855e+01    1.471157e+03
  1.974167e+01    1.460112e+03
  1.979479e+01    1.464452e+03
  1.984791e+01    1.463971e+03
  1.990103e+01    1.462009e+03
  1.995414e+01    1.459399e+03
  2.000726e+01    1.457206e+03
  2.006038e+01    1.452593e+03
  2.011350e+01    1.448024e+03
  2.016662e+01    1.443639e+03
  2.021974e+01    1.445862e+03
  2.027285e+01    1.451087e+03
  2.032597e+01    1.436214e+03
  2.037909e+01    1.431975e+03
  2.043221e+01    1.427086e+03
  2.048533e+01    1.425894e+03
  2.053844e+01    1.424872e+03
  2.059156e+01    1.418353e+03
  2.064468e+01    1.416625e+03
  2.069780e+01    1.397369e+03
  2.075092e+01    1.373226e+03
  2.080404e+01    1.360376e+03
  2.085715e+01    1.378723e+03
  2.091027e+01    1.404405e+03
  2.096339e+01    1.412550e+03
  2.101651e+01    1.416657e+03
  2.106963e+01    1.419979e+03
  2.112274e+01    1.424291e+03
  2.117586e+01    1.425250e+03
  2.122898e+01    1.427220e+03
  2.128210e+01    1.426655e+03
  2.133522e+01    1.426082e+03
  2.138834e+01    1.423941e+03
  2.144145e+01    1.422929e+03
  2.149457e+01    1.423668e+03
  2.154769e+01    1.422453e+03
  2.160081e+01    1.422126e+03
  2.165393e+01    1.423329e+03
  2.170704e+01    1.422740e+03
  2.176016e+01    1.413386e+03
  2.181328e+01    1.422048e+03
  2.186640e+01    1.423170e+03
  2.191952e+01    1.421304e+03
  2.197263e+01    1.419536e+03
  2.202575e+01    1.417852e+03
  2.207887e+01    1.417625e+03
  2.213199e+01    1.414969e+03
  2.218511e+01    1.414465e+03
  2.223823e+01    1.413149e+03
  2.229134e+01    1.411136e+03
  2.234446e+01    1.410322e+03
  2.239758e+01    1.410709e+03
  2.245070e+01    1.409157e+03
  2.250382e+01    1.410143e+03
  2.255693e+01    1.406272e+03
  2.261005e+01    1.389010e+03
  2.266317e+01    1.376098e+03
  2.271629e+01    1.367773e+03
  2.276941e+01    1.359903e+03
  2.282253e+01    1.351337e+03
  2.287564e+01    1.347775e+03
  2.292876e+01    1.342311e+03
  2.298188e+01    1.341710e+03
  2.303500e+01    1.339322e+03
  2.308812e+01    1.334794e+03
  2.314123e+01    1.333362e+03
  2.319435e+01    1.328936e+03
  2.324747e+01    1.322077e+03
  2.330059e+01    1.319697e+03
  2.335371e+01    1.315809e+03
  2.340683e+01    1.310665e+03
  2.345994e+01    1.309336e+03
  2.351306e+01    1.305584e+03
  2.356618e+01    1.300412e+03
  2.361930e+01    1.295205e+03
  2.367242e+01    1.289821e+03
  2.372553e+01    1.283913e+03
  2.377865e+01    1.280000e+03
  2.383177e+01    1.274368e+03
  2.388489e+01    1.271713e+03
  2.393801e+01    1.267835e+03
  2.399113e+01    1.266813e+03
  2.404424e+01    1.265972e+03
  2.409736e+01    1.265173e+03
  2.415048e+01    1.260892e+03
  2.420360e+01    1.257587e+03
  2.425672e+01    1.254280e+03
  2.430983e+01    1.250274e+03
  2.436295e+01    1.248002e+03
  2.441607e+01    1.247795e+03
  2.446919e+01    1.244957e+03
  2.452231e+01    1.244231e+03
  2.457542e+01    1.241740e+03
  2.462854e+01    1.236764e+03
  2.468166e+01    1.237579e+03
  2.473478e+01    1.231514e+03
  2.478790e+01    1.226765e+03
  2.484102e+01    1.221290e+03
  2.489413e+01    1.219398e+03
  2.494725e+01    1.213950e+03
  2.500037e+01    1.209469e+03
  2.505349e+01    1.203954e+03
  2.510661e+01    1.200073e+03
  2.515972e+01    1.199518e+03
  2.521284e+01    1.197891e+03
  2.526596e+01    1.196606e+03
  2.531908e+01    1.193064e+03
  2.537220e+01    1.189230e+03
  2.542532e+01    1.188044e+03
  2.547843e+01    1.185674e+03
  2.553155e+01    1.179204e+03
  2.558467e+01    1.173321e+03
  2.563779e+01    1.165929e+03
  2.569091e+01    1.162350e+03
  2.574402e+01    1.156223e+03
  2.579714e+01    1.147060e+03
  2.585026e+01    1.140411e+03
  2.590338e+01    1.131971e+03
  2.595650e+01    1.134422e+03
  2.600962e+01    1.127227e+03
  2.606273e+01    1.129057e+03
  2.611585e+01    1.130041e+03
  2.616897e+01    1.126535e+03
  2.622209e+01    1.123668e+03
  2.627521e+01    1.117804e+03
  2.632832e+01    1.112745e+03
  2.638144e+01    1.116903e+03
  2.643456e+01    1.105814e+03
  2.648768e+01    1.094496e+03
  2.654080e+01    1.081809e+03
