# == pyFAI calibration ==
# Distance Sample to Detector: 0.2946421923531691 m
# PONI: 2.875e-01, 2.439e-01 m
# Rotations: -0.010990 -0.009181 0.000003 rad
# 
# == Fit2d calibration ==
# Distance Sample-beamCenter: 294.672 mm
# Center: x=1436.809, y=1655.851 pix
# Tilt: 0.820 deg  TiltPlanRot: -39.874 deg
# 
# Detector Pilatus 2M	 PixelSize= 1.720e-04, 1.720e-04 m
#    Detector has a mask: True 
#    Detector has a dark current: False 
#    detector has a flat field: False 
# 
# Wavelength: 2.0732883349524408e-11 m
# Mask applied: from detector
# Dark current applied: False
# Flat field applied: False
# Polarization factor: None
# Normalization factor: 1.0
# --> /gpfs/current/raw/FMue_3/FMue_3_20231024_175355_00079.dat
#        q_A^-1             I 
  3.483473e-02             nan
  8.795289e-02             nan
  1.410711e-01             nan
  1.941892e-01             nan
  2.473074e-01             nan
  3.004255e-01             nan
  3.535437e-01             nan
  4.066619e-01    1.469897e+04
  4.597800e-01    1.321802e+04
  5.128982e-01    1.103688e+04
  5.660163e-01    9.794573e+03
  6.191345e-01    9.207812e+03
  6.722527e-01    8.878562e+03
  7.253708e-01    8.752347e+03
  7.784890e-01    8.697349e+03
  8.316071e-01    8.796964e+03
  8.847253e-01    8.959543e+03
  9.378435e-01    9.369144e+03
  9.909616e-01    1.010955e+04
  1.044080e+00    1.024740e+04
  1.097198e+00    1.001694e+04
  1.150316e+00    1.042260e+04
  1.203434e+00    1.125938e+04
  1.256552e+00    1.227869e+04
  1.309671e+00    1.295419e+04
  1.362789e+00    1.391976e+04
  1.415907e+00    1.453702e+04
  1.469025e+00    1.473987e+04
  1.522143e+00    1.460523e+04
  1.575261e+00    1.400381e+04
  1.628380e+00    1.324407e+04
  1.681498e+00    1.231606e+04
  1.734616e+00    1.136116e+04
  1.787734e+00    1.053682e+04
  1.840852e+00    9.848576e+03
  1.893970e+00    9.349163e+03
  1.947089e+00    9.304954e+03
  2.000207e+00    9.002163e+03
  2.053325e+00    8.421593e+03
  2.106443e+00    8.374158e+03
  2.159561e+00    8.689776e+03
  2.212679e+00    8.935490e+03
  2.265797e+00    9.140391e+03
  2.318916e+00    8.889014e+03
  2.372034e+00    8.255182e+03
  2.425152e+00    8.389360e+03
  2.478270e+00    9.067806e+03
  2.531388e+00    1.034120e+04
  2.584506e+00    1.106629e+04
  2.637625e+00    1.040619e+04
  2.690743e+00    9.325791e+03
  2.743861e+00    8.367474e+03
  2.796979e+00    6.987727e+03
  2.850097e+00    5.970594e+03
  2.903215e+00    5.624222e+03
  2.956334e+00    5.571556e+03
  3.009452e+00    5.808341e+03
  3.062570e+00    6.760499e+03
  3.115688e+00    8.882184e+03
  3.168806e+00    9.409146e+03
  3.221924e+00    7.867253e+03
  3.275043e+00    6.318979e+03
  3.328161e+00    5.648275e+03
  3.381279e+00    5.743982e+03
  3.434397e+00    5.358530e+03
  3.487515e+00    5.098930e+03
  3.540633e+00    5.012958e+03
  3.593751e+00    4.848795e+03
  3.646870e+00    4.842724e+03
  3.699988e+00    4.959716e+03
  3.753106e+00    5.159425e+03
  3.806224e+00    5.294398e+03
  3.859342e+00    5.389185e+03
  3.912460e+00    5.577281e+03
  3.965579e+00    5.874310e+03
  4.018697e+00    6.325432e+03
  4.071815e+00    6.787728e+03
  4.124933e+00    6.880806e+03
  4.178051e+00    6.696799e+03
  4.231169e+00    6.582427e+03
  4.284288e+00    6.866446e+03
  4.337406e+00    7.736510e+03
  4.390524e+00    8.927490e+03
  4.443642e+00    1.120728e+04
  4.496760e+00    1.282292e+04
  4.549878e+00    9.479990e+03
  4.602997e+00    6.281062e+03
  4.656115e+00    5.489769e+03
  4.709233e+00    5.331439e+03
  4.762351e+00    5.433863e+03
  4.815469e+00    5.378086e+03
  4.868587e+00    5.259676e+03
  4.921705e+00    5.262896e+03
  4.974824e+00    5.331907e+03
  5.027942e+00    5.359409e+03
  5.081060e+00    5.408811e+03
  5.134178e+00    5.343827e+03
  5.187296e+00    5.158490e+03
  5.240414e+00    4.901443e+03
  5.293533e+00    4.713231e+03
  5.346651e+00    4.560896e+03
  5.399769e+00    4.440978e+03
  5.452887e+00    4.424207e+03
  5.506005e+00    4.422106e+03
  5.559123e+00    4.064883e+03
  5.612242e+00    3.782427e+03
  5.665360e+00    3.690025e+03
  5.718478e+00    3.601369e+03
  5.771596e+00    3.545318e+03
  5.824714e+00    3.572164e+03
  5.877832e+00    3.662464e+03
  5.930951e+00    3.789572e+03
  5.984069e+00    3.910128e+03
  6.037187e+00    3.945758e+03
  6.090305e+00    3.884660e+03
  6.143423e+00    3.789812e+03
  6.196541e+00    3.836509e+03
  6.249660e+00    4.013883e+03
  6.302778e+00    4.020656e+03
  6.355896e+00    3.771579e+03
  6.409014e+00    3.632615e+03
  6.462132e+00    3.554318e+03
  6.515250e+00    3.478677e+03
  6.568368e+00    3.476586e+03
  6.621487e+00    3.482418e+03
  6.674605e+00    3.497815e+03
  6.727723e+00    3.553738e+03
  6.780841e+00    3.547402e+03
  6.833959e+00    3.476141e+03
  6.887077e+00    3.398894e+03
  6.940196e+00    3.337957e+03
  6.993314e+00    3.362761e+03
  7.046432e+00    3.388777e+03
  7.099550e+00    3.316465e+03
  7.152668e+00    3.233853e+03
  7.205786e+00    3.182931e+03
  7.258905e+00    3.134174e+03
  7.312023e+00    3.140576e+03
  7.365141e+00    3.167099e+03
  7.418259e+00    3.217128e+03
  7.471377e+00    3.266396e+03
  7.524495e+00    3.328623e+03
  7.577614e+00    3.393811e+03
  7.630732e+00    3.434252e+03
  7.683850e+00    3.555144e+03
  7.736968e+00    3.731180e+03
  7.790086e+00    3.695836e+03
  7.843204e+00    3.467775e+03
  7.896322e+00    3.252637e+03
  7.949441e+00    3.132823e+03
  8.002559e+00    3.094053e+03
  8.055677e+00    3.093602e+03
  8.108795e+00    3.090617e+03
  8.161913e+00    3.091960e+03
  8.215031e+00    3.049245e+03
  8.268150e+00    2.990937e+03
  8.321268e+00    2.943766e+03
  8.374386e+00    2.920616e+03
  8.427504e+00    2.903803e+03
  8.480622e+00    2.878449e+03
  8.533740e+00    2.819580e+03
  8.586859e+00    2.845563e+03
  8.639977e+00    2.844497e+03
  8.693095e+00    2.836089e+03
  8.746213e+00    2.836092e+03
  8.799331e+00    2.823060e+03
  8.852449e+00    2.815894e+03
  8.905568e+00    2.835484e+03
  8.958686e+00    2.848090e+03
  9.011804e+00    2.853676e+03
  9.064922e+00    2.789046e+03
  9.118040e+00    2.712612e+03
  9.171158e+00    2.684168e+03
  9.224276e+00    2.669882e+03
  9.277395e+00    2.642109e+03
  9.330513e+00    2.625899e+03
  9.383631e+00    2.617183e+03
  9.436749e+00    2.604563e+03
  9.489867e+00    2.607608e+03
  9.542985e+00    2.602482e+03
  9.596104e+00    2.577988e+03
  9.649222e+00    2.566664e+03
  9.702340e+00    2.564679e+03
  9.755458e+00    2.560939e+03
  9.808576e+00    2.554887e+03
  9.861694e+00    2.559471e+03
  9.914813e+00    2.565260e+03
  9.967931e+00    2.555823e+03
  1.002105e+01    2.514881e+03
  1.007417e+01    2.464831e+03
  1.012729e+01    2.435479e+03
  1.018040e+01    2.437199e+03
  1.023352e+01    2.424810e+03
  1.028664e+01    2.398976e+03
  1.033976e+01    2.382464e+03
  1.039288e+01    2.397890e+03
  1.044599e+01    2.386057e+03
  1.049911e+01    2.380006e+03
  1.055223e+01    2.361816e+03
  1.060535e+01    2.359138e+03
  1.065847e+01    2.350734e+03
  1.071158e+01    2.344908e+03
  1.076470e+01    2.335877e+03
  1.081782e+01    2.332389e+03
  1.087094e+01    2.320458e+03
  1.092406e+01    2.325037e+03
  1.097718e+01    2.326709e+03
  1.103029e+01    2.326751e+03
  1.108341e+01    2.320398e+03
  1.113653e+01    2.310061e+03
  1.118965e+01    2.298306e+03
  1.124277e+01    2.286108e+03
  1.129588e+01    2.278819e+03
  1.134900e+01    2.269642e+03
  1.140212e+01    2.266412e+03
  1.145524e+01    2.258626e+03
  1.150836e+01    2.263652e+03
  1.156148e+01    2.257221e+03
  1.161459e+01    2.263009e+03
  1.166771e+01    2.256567e+03
  1.172083e+01    2.269521e+03
  1.177395e+01    2.255397e+03
  1.182707e+01    2.247348e+03
  1.188018e+01    2.246166e+03
  1.193330e+01    2.230570e+03
  1.198642e+01    2.212248e+03
  1.203954e+01    2.190919e+03
  1.209266e+01    2.179284e+03
  1.214578e+01    2.168575e+03
  1.219889e+01    2.170417e+03
  1.225201e+01    2.168802e+03
  1.230513e+01    2.162128e+03
  1.235825e+01    2.166927e+03
  1.241137e+01    2.154136e+03
  1.246448e+01    2.152146e+03
  1.251760e+01    2.150187e+03
  1.257072e+01    2.145782e+03
  1.262384e+01    2.148388e+03
  1.267696e+01    2.135271e+03
  1.273008e+01    2.120408e+03
  1.278319e+01    2.112126e+03
  1.283631e+01    2.101559e+03
  1.288943e+01    2.097905e+03
  1.294255e+01    2.086246e+03
  1.299567e+01    2.080549e+03
  1.304878e+01    2.073613e+03
  1.310190e+01    2.070859e+03
  1.315502e+01    2.065483e+03
  1.320814e+01    2.042106e+03
  1.326126e+01    2.018036e+03
  1.331437e+01    2.006875e+03
  1.336749e+01    1.997257e+03
  1.342061e+01    1.986699e+03
  1.347373e+01    2.012773e+03
  1.352685e+01    2.017835e+03
  1.357997e+01    2.006629e+03
  1.363308e+01    1.992843e+03
  1.368620e+01    1.984352e+03
  1.373932e+01    1.972848e+03
  1.379244e+01    1.967555e+03
  1.384556e+01    1.962433e+03
  1.389867e+01    1.954510e+03
  1.395179e+01    1.946853e+03
  1.400491e+01    1.944049e+03
  1.405803e+01    1.939672e+03
  1.411115e+01    1.932541e+03
  1.416427e+01    1.923226e+03
  1.421738e+01    1.920775e+03
  1.427050e+01    1.911231e+03
  1.432362e+01    1.910763e+03
  1.437674e+01    1.909293e+03
  1.442986e+01    1.895884e+03
  1.448297e+01    1.889492e+03
  1.453609e+01    1.880146e+03
  1.458921e+01    1.871170e+03
  1.464233e+01    1.868918e+03
  1.469545e+01    1.861914e+03
  1.474857e+01    1.843323e+03
  1.480168e+01    1.853851e+03
  1.485480e+01    1.849820e+03
  1.490792e+01    1.845663e+03
  1.496104e+01    1.838163e+03
  1.501416e+01    1.835055e+03
  1.506727e+01    1.830531e+03
  1.512039e+01    1.828340e+03
  1.517351e+01    1.841057e+03
  1.522663e+01    1.853972e+03
  1.527975e+01    1.850810e+03
  1.533286e+01    1.834308e+03
  1.538598e+01    1.824708e+03
  1.543910e+01    1.817282e+03
  1.549222e+01    1.815117e+03
  1.554534e+01    1.813542e+03
  1.559846e+01    1.812241e+03
  1.565157e+01    1.804577e+03
  1.570469e+01    1.800033e+03
  1.575781e+01    1.796047e+03
  1.581093e+01    1.792200e+03
  1.586405e+01    1.790502e+03
  1.591716e+01    1.784052e+03
  1.597028e+01    1.778488e+03
  1.602340e+01    1.763276e+03
  1.607652e+01    1.752760e+03
  1.612964e+01    1.730805e+03
  1.618276e+01    1.716469e+03
  1.623587e+01    1.717586e+03
  1.628899e+01    1.733652e+03
  1.634211e+01    1.732281e+03
  1.639523e+01    1.727256e+03
  1.644835e+01    1.728018e+03
  1.650146e+01    1.720874e+03
  1.655458e+01    1.720501e+03
  1.660770e+01    1.715467e+03
  1.666082e+01    1.711585e+03
  1.671394e+01    1.710816e+03
  1.676706e+01    1.706327e+03
  1.682017e+01    1.720153e+03
  1.687329e+01    1.710207e+03
  1.692641e+01    1.703779e+03
  1.697953e+01    1.698740e+03
  1.703265e+01    1.694146e+03
  1.708576e+01    1.691786e+03
  1.713888e+01    1.684311e+03
  1.719200e+01    1.683019e+03
  1.724512e+01    1.675319e+03
  1.729824e+01    1.676198e+03
  1.735136e+01    1.669473e+03
  1.740447e+01    1.647332e+03
  1.745759e+01    1.654533e+03
  1.751071e+01    1.656802e+03
  1.756383e+01    1.667022e+03
  1.761695e+01    1.649887e+03
  1.767006e+01    1.647031e+03
  1.772318e+01    1.637849e+03
  1.777630e+01    1.637266e+03
  1.782942e+01    1.628069e+03
  1.788254e+01    1.624224e+03
  1.793565e+01    1.621510e+03
  1.798877e+01    1.620548e+03
  1.804189e+01    1.612494e+03
  1.809501e+01    1.607694e+03
  1.814813e+01    1.605381e+03
  1.820125e+01    1.601155e+03
  1.825436e+01    1.605386e+03
  1.830748e+01    1.598976e+03
  1.836060e+01    1.595269e+03
  1.841372e+01    1.591528e+03
  1.846684e+01    1.587480e+03
  1.851995e+01    1.566679e+03
  1.857307e+01    1.552327e+03
  1.862619e+01    1.542130e+03
  1.867931e+01    1.538986e+03
  1.873243e+01    1.558386e+03
  1.878555e+01    1.560629e+03
  1.883866e+01    1.559263e+03
  1.889178e+01    1.558713e+03
  1.894490e+01    1.570764e+03
  1.899802e+01    1.558860e+03
  1.905114e+01    1.556143e+03
  1.910425e+01    1.550300e+03
  1.915737e+01    1.546377e+03
  1.921049e+01    1.542406e+03
  1.926361e+01    1.539666e+03
  1.931673e+01    1.536118e+03
  1.936985e+01    1.534465e+03
  1.942296e+01    1.531441e+03
  1.947608e+01    1.531887e+03
  1.952920e+01    1.528129e+03
  1.958232e+01    1.529447e+03
  1.963544e+01    1.534341e+03
  1.968855e+01    1.519346e+03
  1.974167e+01    1.507873e+03
  1.979479e+01    1.512623e+03
  1.984791e+01    1.511100e+03
  1.990103e+01    1.510204e+03
  1.995414e+01    1.508197e+03
  2.000726e+01    1.504794e+03
  2.006038e+01    1.501305e+03
  2.011350e+01    1.497428e+03
  2.016662e+01    1.490758e+03
  2.021974e+01    1.494045e+03
  2.027285e+01    1.500399e+03
  2.032597e+01    1.484906e+03
  2.037909e+01    1.479303e+03
  2.043221e+01    1.475467e+03
  2.048533e+01    1.472609e+03
  2.053844e+01    1.472890e+03
  2.059156e+01    1.465948e+03
  2.064468e+01    1.464377e+03
  2.069780e+01    1.444950e+03
  2.075092e+01    1.420547e+03
  2.080404e+01    1.405550e+03
  2.085715e+01    1.425644e+03
  2.091027e+01    1.453288e+03
  2.096339e+01    1.458944e+03
  2.101651e+01    1.465191e+03
  2.106963e+01    1.467941e+03
  2.112274e+01    1.471036e+03
  2.117586e+01    1.472158e+03
  2.122898e+01    1.474899e+03
  2.128210e+01    1.472267e+03
  2.133522e+01    1.472172e+03
  2.138834e+01    1.471556e+03
  2.144145e+01    1.471138e+03
  2.149457e+01    1.471482e+03
  2.154769e+01    1.469831e+03
  2.160081e+01    1.469037e+03
  2.165393e+01    1.470753e+03
  2.170704e+01    1.469323e+03
  2.176016e+01    1.460216e+03
  2.181328e+01    1.468094e+03
  2.186640e+01    1.470679e+03
  2.191952e+01    1.467697e+03
  2.197263e+01    1.467093e+03
  2.202575e+01    1.463356e+03
  2.207887e+01    1.462944e+03
  2.213199e+01    1.461317e+03
  2.218511e+01    1.460446e+03
  2.223823e+01    1.460432e+03
  2.229134e+01    1.456803e+03
  2.234446e+01    1.457032e+03
  2.239758e+01    1.456190e+03
  2.245070e+01    1.453845e+03
  2.250382e+01    1.455658e+03
  2.255693e+01    1.452148e+03
  2.261005e+01    1.434072e+03
  2.266317e+01    1.420997e+03
  2.271629e+01    1.413378e+03
  2.276941e+01    1.403375e+03
  2.282253e+01    1.396426e+03
  2.287564e+01    1.392626e+03
  2.292876e+01    1.386227e+03
  2.298188e+01    1.385122e+03
  2.303500e+01    1.381612e+03
  2.308812e+01    1.379129e+03
  2.314123e+01    1.376704e+03
  2.319435e+01    1.373169e+03
  2.324747e+01    1.366623e+03
  2.330059e+01    1.364010e+03
  2.335371e+01    1.359040e+03
  2.340683e+01    1.353972e+03
  2.345994e+01    1.352087e+03
  2.351306e+01    1.349091e+03
  2.356618e+01    1.345424e+03
  2.361930e+01    1.339995e+03
  2.367242e+01    1.335610e+03
  2.372553e+01    1.327389e+03
  2.377865e+01    1.324070e+03
  2.383177e+01    1.319255e+03
  2.388489e+01    1.314461e+03
  2.393801e+01    1.309756e+03
  2.399113e+01    1.307159e+03
  2.404424e+01    1.305954e+03
  2.409736e+01    1.306163e+03
  2.415048e+01    1.300233e+03
  2.420360e+01    1.295449e+03
  2.425672e+01    1.293370e+03
  2.430983e+01    1.293176e+03
  2.436295e+01    1.288821e+03
  2.441607e+01    1.285124e+03
  2.446919e+01    1.285748e+03
  2.452231e+01    1.285358e+03
  2.457542e+01    1.280560e+03
  2.462854e+01    1.279011e+03
  2.468166e+01    1.276464e+03
  2.473478e+01    1.272692e+03
  2.478790e+01    1.266294e+03
  2.484102e+01    1.264201e+03
  2.489413e+01    1.258424e+03
  2.494725e+01    1.252995e+03
  2.500037e+01    1.249737e+03
  2.505349e+01    1.245770e+03
  2.510661e+01    1.239281e+03
  2.515972e+01    1.234773e+03
  2.521284e+01    1.234374e+03
  2.526596e+01    1.234227e+03
  2.531908e+01    1.227374e+03
  2.537220e+01    1.225083e+03
  2.542532e+01    1.224904e+03
  2.547843e+01    1.222509e+03
  2.553155e+01    1.217774e+03
  2.558467e+01    1.211158e+03
  2.563779e+01    1.203442e+03
  2.569091e+01    1.199316e+03
  2.574402e+01    1.188752e+03
  2.579714e+01    1.181030e+03
  2.585026e+01    1.177313e+03
  2.590338e+01    1.167881e+03
  2.595650e+01    1.167488e+03
  2.600962e+01    1.164332e+03
  2.606273e+01    1.164827e+03
  2.611585e+01    1.162382e+03
  2.616897e+01    1.168474e+03
  2.622209e+01    1.164297e+03
  2.627521e+01    1.156328e+03
  2.632832e+01    1.152229e+03
  2.638144e+01    1.146587e+03
  2.643456e+01    1.134868e+03
  2.648768e+01    1.129618e+03
  2.654080e+01    1.117843e+03
