# == pyFAI calibration ==
# Distance Sample to Detector: 0.2946421923531691 m
# PONI: 2.875e-01, 2.439e-01 m
# Rotations: -0.010990 -0.009181 0.000003 rad
# 
# == Fit2d calibration ==
# Distance Sample-beamCenter: 294.672 mm
# Center: x=1436.809, y=1655.851 pix
# Tilt: 0.820 deg  TiltPlanRot: -39.874 deg
# 
# Detector Pilatus 2M	 PixelSize= 1.720e-04, 1.720e-04 m
#    Detector has a mask: True 
#    Detector has a dark current: False 
#    detector has a flat field: False 
# 
# Wavelength: 2.0732883349524408e-11 m
# Mask applied: from detector
# Dark current applied: False
# Flat field applied: False
# Polarization factor: None
# Normalization factor: 1.0
# --> /gpfs/current/raw/FMue_3/FMue_3_20231024_175355_00144.dat
#        q_A^-1             I 
  3.483473e-02             nan
  8.795289e-02             nan
  1.410711e-01             nan
  1.941892e-01             nan
  2.473074e-01             nan
  3.004255e-01             nan
  3.535437e-01             nan
  4.066619e-01    1.236366e+04
  4.597800e-01    1.129364e+04
  5.128982e-01    9.584312e+03
  5.660163e-01    8.653415e+03
  6.191345e-01    8.289075e+03
  6.722527e-01    8.141157e+03
  7.253708e-01    8.155722e+03
  7.784890e-01    8.205268e+03
  8.316071e-01    8.347175e+03
  8.847253e-01    8.471474e+03
  9.378435e-01    8.663192e+03
  9.909616e-01    8.884249e+03
  1.044080e+00    9.147578e+03
  1.097198e+00    9.485795e+03
  1.150316e+00    1.003819e+04
  1.203434e+00    1.072619e+04
  1.256552e+00    1.160886e+04
  1.309671e+00    1.272026e+04
  1.362789e+00    1.380302e+04
  1.415907e+00    1.428026e+04
  1.469025e+00    1.436600e+04
  1.522143e+00    1.419954e+04
  1.575261e+00    1.362728e+04
  1.628380e+00    1.287783e+04
  1.681498e+00    1.194049e+04
  1.734616e+00    1.099908e+04
  1.787734e+00    1.017220e+04
  1.840852e+00    9.490749e+03
  1.893970e+00    8.917563e+03
  1.947089e+00    8.559388e+03
  2.000207e+00    8.277979e+03
  2.053325e+00    8.130951e+03
  2.106443e+00    8.442963e+03
  2.159561e+00    9.153780e+03
  2.212679e+00    9.433878e+03
  2.265797e+00    9.257998e+03
  2.318916e+00    8.623486e+03
  2.372034e+00    7.938340e+03
  2.425152e+00    8.199828e+03
  2.478270e+00    9.478878e+03
  2.531388e+00    1.199510e+04
  2.584506e+00    1.300844e+04
  2.637625e+00    1.075293e+04
  2.690743e+00    8.739407e+03
  2.743861e+00    7.806262e+03
  2.796979e+00    6.490644e+03
  2.850097e+00    5.580371e+03
  2.903215e+00    5.273060e+03
  2.956334e+00    5.217196e+03
  3.009452e+00    5.552256e+03
  3.062570e+00    6.897909e+03
  3.115688e+00    9.194854e+03
  3.168806e+00    9.158143e+03
  3.221924e+00    7.397709e+03
  3.275043e+00    5.842801e+03
  3.328161e+00    4.975571e+03
  3.381279e+00    4.761976e+03
  3.434397e+00    4.758620e+03
  3.487515e+00    4.797617e+03
  3.540633e+00    4.708190e+03
  3.593751e+00    4.613329e+03
  3.646870e+00    4.670887e+03
  3.699988e+00    4.812612e+03
  3.753106e+00    5.041920e+03
  3.806224e+00    5.254276e+03
  3.859342e+00    5.380556e+03
  3.912460e+00    5.641169e+03
  3.965579e+00    6.258692e+03
  4.018697e+00    6.993204e+03
  4.071815e+00    7.236330e+03
  4.124933e+00    6.860578e+03
  4.178051e+00    6.436975e+03
  4.231169e+00    6.275683e+03
  4.284288e+00    6.603676e+03
  4.337406e+00    7.919936e+03
  4.390524e+00    9.913229e+03
  4.443642e+00    1.194113e+04
  4.496760e+00    1.238086e+04
  4.549878e+00    8.703108e+03
  4.602997e+00    5.970641e+03
  4.656115e+00    5.308984e+03
  4.709233e+00    5.097115e+03
  4.762351e+00    5.045576e+03
  4.815469e+00    5.071827e+03
  4.868587e+00    5.156751e+03
  4.921705e+00    5.228072e+03
  4.974824e+00    5.327155e+03
  5.027942e+00    5.422880e+03
  5.081060e+00    5.557591e+03
  5.134178e+00    5.441095e+03
  5.187296e+00    5.096498e+03
  5.240414e+00    4.724405e+03
  5.293533e+00    4.496705e+03
  5.346651e+00    4.376885e+03
  5.399769e+00    4.308852e+03
  5.452887e+00    4.294448e+03
  5.506005e+00    4.180573e+03
  5.559123e+00    3.823732e+03
  5.612242e+00    3.631129e+03
  5.665360e+00    3.580999e+03
  5.718478e+00    3.543782e+03
  5.771596e+00    3.563270e+03
  5.824714e+00    3.648112e+03
  5.877832e+00    3.800646e+03
  5.930951e+00    3.995852e+03
  5.984069e+00    4.084373e+03
  6.037187e+00    3.971173e+03
  6.090305e+00    3.805873e+03
  6.143423e+00    3.727867e+03
  6.196541e+00    3.847029e+03
  6.249660e+00    4.003195e+03
  6.302778e+00    3.907051e+03
  6.355896e+00    3.634261e+03
  6.409014e+00    3.527880e+03
  6.462132e+00    3.463128e+03
  6.515250e+00    3.408537e+03
  6.568368e+00    3.423729e+03
  6.621487e+00    3.481833e+03
  6.674605e+00    3.558482e+03
  6.727723e+00    3.617029e+03
  6.780841e+00    3.525990e+03
  6.833959e+00    3.373802e+03
  6.887077e+00    3.262894e+03
  6.940196e+00    3.222604e+03
  6.993314e+00    3.260524e+03
  7.046432e+00    3.264454e+03
  7.099550e+00    3.187859e+03
  7.152668e+00    3.123248e+03
  7.205786e+00    3.067252e+03
  7.258905e+00    3.048048e+03
  7.312023e+00    3.096064e+03
  7.365141e+00    3.179820e+03
  7.418259e+00    3.235064e+03
  7.471377e+00    3.256737e+03
  7.524495e+00    3.305940e+03
  7.577614e+00    3.412505e+03
  7.630732e+00    3.481725e+03
  7.683850e+00    3.551379e+03
  7.736968e+00    3.636958e+03
  7.790086e+00    3.532215e+03
  7.843204e+00    3.344868e+03
  7.896322e+00    3.196050e+03
  7.949441e+00    3.138551e+03
  8.002559e+00    3.135326e+03
  8.055677e+00    3.116090e+03
  8.108795e+00    3.072894e+03
  8.161913e+00    3.030416e+03
  8.215031e+00    2.978736e+03
  8.268150e+00    2.928313e+03
  8.321268e+00    2.888941e+03
  8.374386e+00    2.866924e+03
  8.427504e+00    2.845884e+03
  8.480622e+00    2.832176e+03
  8.533740e+00    2.784845e+03
  8.586859e+00    2.818546e+03
  8.639977e+00    2.811987e+03
  8.693095e+00    2.802413e+03
  8.746213e+00    2.803754e+03
  8.799331e+00    2.798114e+03
  8.852449e+00    2.789915e+03
  8.905568e+00    2.800929e+03
  8.958686e+00    2.791207e+03
  9.011804e+00    2.783238e+03
  9.064922e+00    2.729407e+03
  9.118040e+00    2.690875e+03
  9.171158e+00    2.674451e+03
  9.224276e+00    2.645977e+03
  9.277395e+00    2.602772e+03
  9.330513e+00    2.572830e+03
  9.383631e+00    2.550617e+03
  9.436749e+00    2.535636e+03
  9.489867e+00    2.543503e+03
  9.542985e+00    2.547006e+03
  9.596104e+00    2.540316e+03
  9.649222e+00    2.547043e+03
  9.702340e+00    2.545002e+03
  9.755458e+00    2.531403e+03
  9.808576e+00    2.527540e+03
  9.861694e+00    2.529469e+03
  9.914813e+00    2.522909e+03
  9.967931e+00    2.499278e+03
  1.002105e+01    2.464979e+03
  1.007417e+01    2.438061e+03
  1.012729e+01    2.414739e+03
  1.018040e+01    2.405748e+03
  1.023352e+01    2.377582e+03
  1.028664e+01    2.344234e+03
  1.033976e+01    2.327375e+03
  1.039288e+01    2.346266e+03
  1.044599e+01    2.336021e+03
  1.049911e+01    2.333308e+03
  1.055223e+01    2.320018e+03
  1.060535e+01    2.324213e+03
  1.065847e+01    2.312865e+03
  1.071158e+01    2.302871e+03
  1.076470e+01    2.295903e+03
  1.081782e+01    2.294154e+03
  1.087094e+01    2.284899e+03
  1.092406e+01    2.291298e+03
  1.097718e+01    2.296941e+03
  1.103029e+01    2.293971e+03
  1.108341e+01    2.289197e+03
  1.113653e+01    2.274212e+03
  1.118965e+01    2.254836e+03
  1.124277e+01    2.240172e+03
  1.129588e+01    2.232796e+03
  1.134900e+01    2.228344e+03
  1.140212e+01    2.230759e+03
  1.145524e+01    2.231613e+03
  1.150836e+01    2.239234e+03
  1.156148e+01    2.235993e+03
  1.161459e+01    2.241368e+03
  1.166771e+01    2.227355e+03
  1.172083e+01    2.230628e+03
  1.177395e+01    2.213152e+03
  1.182707e+01    2.199235e+03
  1.188018e+01    2.202196e+03
  1.193330e+01    2.188329e+03
  1.198642e+01    2.169499e+03
  1.203954e+01    2.150029e+03
  1.209266e+01    2.143248e+03
  1.214578e+01    2.135394e+03
  1.219889e+01    2.140285e+03
  1.225201e+01    2.139573e+03
  1.230513e+01    2.133187e+03
  1.235825e+01    2.134064e+03
  1.241137e+01    2.118719e+03
  1.246448e+01    2.116270e+03
  1.251760e+01    2.111068e+03
  1.257072e+01    2.107890e+03
  1.262384e+01    2.111826e+03
  1.267696e+01    2.099352e+03
  1.273008e+01    2.084881e+03
  1.278319e+01    2.074494e+03
  1.283631e+01    2.064339e+03
  1.288943e+01    2.057378e+03
  1.294255e+01    2.047457e+03
  1.299567e+01    2.041876e+03
  1.304878e+01    2.035977e+03
  1.310190e+01    2.033870e+03
  1.315502e+01    2.029352e+03
  1.320814e+01    2.006061e+03
  1.326126e+01    1.983251e+03
  1.331437e+01    1.974678e+03
  1.336749e+01    1.968160e+03
  1.342061e+01    1.956461e+03
  1.347373e+01    1.981298e+03
  1.352685e+01    1.979427e+03
  1.357997e+01    1.966714e+03
  1.363308e+01    1.955822e+03
  1.368620e+01    1.949906e+03
  1.373932e+01    1.940388e+03
  1.379244e+01    1.935648e+03
  1.384556e+01    1.928178e+03
  1.389867e+01    1.918534e+03
  1.395179e+01    1.911852e+03
  1.400491e+01    1.907584e+03
  1.405803e+01    1.904832e+03
  1.411115e+01    1.897387e+03
  1.416427e+01    1.889339e+03
  1.421738e+01    1.884934e+03
  1.427050e+01    1.875651e+03
  1.432362e+01    1.876829e+03
  1.437674e+01    1.873387e+03
  1.442986e+01    1.862846e+03
  1.448297e+01    1.855545e+03
  1.453609e+01    1.849776e+03
  1.458921e+01    1.838916e+03
  1.464233e+01    1.835882e+03
  1.469545e+01    1.829480e+03
  1.474857e+01    1.810429e+03
  1.480168e+01    1.820519e+03
  1.485480e+01    1.817121e+03
  1.490792e+01    1.813354e+03
  1.496104e+01    1.803767e+03
  1.501416e+01    1.802355e+03
  1.506727e+01    1.797070e+03
  1.512039e+01    1.795241e+03
  1.517351e+01    1.807282e+03
  1.522663e+01    1.822030e+03
  1.527975e+01    1.818307e+03
  1.533286e+01    1.802210e+03
  1.538598e+01    1.795080e+03
  1.543910e+01    1.786071e+03
  1.549222e+01    1.783428e+03
  1.554534e+01    1.781045e+03
  1.559846e+01    1.778200e+03
  1.565157e+01    1.771675e+03
  1.570469e+01    1.767644e+03
  1.575781e+01    1.763432e+03
  1.581093e+01    1.760954e+03
  1.586405e+01    1.757767e+03
  1.591716e+01    1.752478e+03
  1.597028e+01    1.747122e+03
  1.602340e+01    1.730563e+03
  1.607652e+01    1.719250e+03
  1.612964e+01    1.697137e+03
  1.618276e+01    1.684578e+03
  1.623587e+01    1.685282e+03
  1.628899e+01    1.701537e+03
  1.634211e+01    1.700113e+03
  1.639523e+01    1.694691e+03
  1.644835e+01    1.697668e+03
  1.650146e+01    1.690799e+03
  1.655458e+01    1.689805e+03
  1.660770e+01    1.684913e+03
  1.666082e+01    1.680567e+03
  1.671394e+01    1.679151e+03
  1.676706e+01    1.674797e+03
  1.682017e+01    1.688252e+03
  1.687329e+01    1.675921e+03
  1.692641e+01    1.670798e+03
  1.697953e+01    1.666795e+03
  1.703265e+01    1.662725e+03
  1.708576e+01    1.661794e+03
  1.713888e+01    1.654449e+03
  1.719200e+01    1.652718e+03
  1.724512e+01    1.644531e+03
  1.729824e+01    1.644002e+03
  1.735136e+01    1.639456e+03
  1.740447e+01    1.615698e+03
  1.745759e+01    1.624188e+03
  1.751071e+01    1.626283e+03
  1.756383e+01    1.636156e+03
  1.761695e+01    1.620415e+03
  1.767006e+01    1.617469e+03
  1.772318e+01    1.608795e+03
  1.777630e+01    1.608751e+03
  1.782942e+01    1.600701e+03
  1.788254e+01    1.595010e+03
  1.793565e+01    1.592476e+03
  1.798877e+01    1.590029e+03
  1.804189e+01    1.583387e+03
  1.809501e+01    1.579078e+03
  1.814813e+01    1.577234e+03
  1.820125e+01    1.570521e+03
  1.825436e+01    1.577030e+03
  1.830748e+01    1.569945e+03
  1.836060e+01    1.565136e+03
  1.841372e+01    1.563912e+03
  1.846684e+01    1.558270e+03
  1.851995e+01    1.538828e+03
  1.857307e+01    1.525067e+03
  1.862619e+01    1.515014e+03
  1.867931e+01    1.511130e+03
  1.873243e+01    1.530569e+03
  1.878555e+01    1.532598e+03
  1.883866e+01    1.532028e+03
  1.889178e+01    1.530772e+03
  1.894490e+01    1.542023e+03
  1.899802e+01    1.532747e+03
  1.905114e+01    1.527269e+03
  1.910425e+01    1.523385e+03
  1.915737e+01    1.517258e+03
  1.921049e+01    1.513708e+03
  1.926361e+01    1.510676e+03
  1.931673e+01    1.507592e+03
  1.936985e+01    1.506125e+03
  1.942296e+01    1.503122e+03
  1.947608e+01    1.502585e+03
  1.952920e+01    1.497990e+03
  1.958232e+01    1.499214e+03
  1.963544e+01    1.503922e+03
  1.968855e+01    1.490787e+03
  1.974167e+01    1.479472e+03
  1.979479e+01    1.484264e+03
  1.984791e+01    1.482178e+03
  1.990103e+01    1.479999e+03
  1.995414e+01    1.478772e+03
  2.000726e+01    1.474763e+03
  2.006038e+01    1.471513e+03
  2.011350e+01    1.467934e+03
  2.016662e+01    1.461039e+03
  2.021974e+01    1.464336e+03
  2.027285e+01    1.470437e+03
  2.032597e+01    1.454501e+03
  2.037909e+01    1.451683e+03
  2.043221e+01    1.445784e+03
  2.048533e+01    1.443977e+03
  2.053844e+01    1.443040e+03
  2.059156e+01    1.438475e+03
  2.064468e+01    1.434400e+03
  2.069780e+01    1.415204e+03
  2.075092e+01    1.391788e+03
  2.080404e+01    1.379229e+03
  2.085715e+01    1.396376e+03
  2.091027e+01    1.422887e+03
  2.096339e+01    1.430461e+03
  2.101651e+01    1.434437e+03
  2.106963e+01    1.438958e+03
  2.112274e+01    1.442610e+03
  2.117586e+01    1.443433e+03
  2.122898e+01    1.446525e+03
  2.128210e+01    1.443444e+03
  2.133522e+01    1.443913e+03
  2.138834e+01    1.442797e+03
  2.144145e+01    1.442247e+03
  2.149457e+01    1.442181e+03
  2.154769e+01    1.440500e+03
  2.160081e+01    1.439884e+03
  2.165393e+01    1.441172e+03
  2.170704e+01    1.441455e+03
  2.176016e+01    1.430406e+03
  2.181328e+01    1.439270e+03
  2.186640e+01    1.440710e+03
  2.191952e+01    1.440039e+03
  2.197263e+01    1.437098e+03
  2.202575e+01    1.435557e+03
  2.207887e+01    1.435706e+03
  2.213199e+01    1.432953e+03
  2.218511e+01    1.432534e+03
  2.223823e+01    1.430949e+03
  2.229134e+01    1.430353e+03
  2.234446e+01    1.428863e+03
  2.239758e+01    1.427960e+03
  2.245070e+01    1.426316e+03
  2.250382e+01    1.426828e+03
  2.255693e+01    1.422875e+03
  2.261005e+01    1.405737e+03
  2.266317e+01    1.393491e+03
  2.271629e+01    1.385821e+03
  2.276941e+01    1.375678e+03
  2.282253e+01    1.368977e+03
  2.287564e+01    1.365374e+03
  2.292876e+01    1.360045e+03
  2.298188e+01    1.355929e+03
  2.303500e+01    1.354971e+03
  2.308812e+01    1.351969e+03
  2.314123e+01    1.350200e+03
  2.319435e+01    1.346141e+03
  2.324747e+01    1.339064e+03
  2.330059e+01    1.335498e+03
  2.335371e+01    1.333060e+03
  2.340683e+01    1.328611e+03
  2.345994e+01    1.325448e+03
  2.351306e+01    1.322409e+03
  2.356618e+01    1.317175e+03
  2.361930e+01    1.312132e+03
  2.367242e+01    1.307079e+03
  2.372553e+01    1.300907e+03
  2.377865e+01    1.297769e+03
  2.383177e+01    1.291660e+03
  2.388489e+01    1.286741e+03
  2.393801e+01    1.281984e+03
  2.399113e+01    1.281194e+03
  2.404424e+01    1.280234e+03
  2.409736e+01    1.278442e+03
  2.415048e+01    1.275294e+03
  2.420360e+01    1.272720e+03
  2.425672e+01    1.271050e+03
  2.430983e+01    1.266170e+03
  2.436295e+01    1.264388e+03
  2.441607e+01    1.263595e+03
  2.446919e+01    1.262222e+03
  2.452231e+01    1.258351e+03
  2.457542e+01    1.256662e+03
  2.462854e+01    1.255156e+03
  2.468166e+01    1.254683e+03
  2.473478e+01    1.249514e+03
  2.478790e+01    1.242775e+03
  2.484102e+01    1.239328e+03
  2.489413e+01    1.232544e+03
  2.494725e+01    1.229538e+03
  2.500037e+01    1.225079e+03
  2.505349e+01    1.218959e+03
  2.510661e+01    1.215766e+03
  2.515972e+01    1.212314e+03
  2.521284e+01    1.211423e+03
  2.526596e+01    1.211578e+03
  2.531908e+01    1.209946e+03
  2.537220e+01    1.204558e+03
  2.542532e+01    1.198005e+03
  2.547843e+01    1.199564e+03
  2.553155e+01    1.196435e+03
  2.558467e+01    1.189407e+03
  2.563779e+01    1.183078e+03
  2.569091e+01    1.174615e+03
  2.574402e+01    1.169241e+03
  2.579714e+01    1.158535e+03
  2.585026e+01    1.155827e+03
  2.590338e+01    1.150385e+03
  2.595650e+01    1.149929e+03
  2.600962e+01    1.145412e+03
  2.606273e+01    1.150429e+03
  2.611585e+01    1.142052e+03
  2.616897e+01    1.139706e+03
  2.622209e+01    1.141709e+03
  2.627521e+01    1.132759e+03
  2.632832e+01    1.122268e+03
  2.638144e+01    1.127601e+03
  2.643456e+01    1.119070e+03
  2.648768e+01    1.109805e+03
  2.654080e+01    1.102400e+03
