# == pyFAI calibration ==
# Distance Sample to Detector: 0.2946421923531691 m
# PONI: 2.875e-01, 2.439e-01 m
# Rotations: -0.010990 -0.009181 0.000003 rad
# 
# == Fit2d calibration ==
# Distance Sample-beamCenter: 294.672 mm
# Center: x=1436.809, y=1655.851 pix
# Tilt: 0.820 deg  TiltPlanRot: -39.874 deg
# 
# Detector Pilatus 2M	 PixelSize= 1.720e-04, 1.720e-04 m
#    Detector has a mask: True 
#    Detector has a dark current: False 
#    detector has a flat field: False 
# 
# Wavelength: 2.0732883349524408e-11 m
# Mask applied: from detector
# Dark current applied: False
# Flat field applied: False
# Polarization factor: None
# Normalization factor: 1.0
# --> /gpfs/current/raw/FMue_3/FMue_3_20231024_175355_00033.dat
#        q_A^-1             I 
  3.483473e-02             nan
  8.795289e-02             nan
  1.410711e-01             nan
  1.941892e-01             nan
  2.473074e-01             nan
  3.004255e-01             nan
  3.535437e-01             nan
  4.066619e-01    9.749808e+03
  4.597800e-01    9.312300e+03
  5.128982e-01    8.348846e+03
  5.660163e-01    7.967619e+03
  6.191345e-01    7.938503e+03
  6.722527e-01    8.039963e+03
  7.253708e-01    8.362229e+03
  7.784890e-01    1.353737e+04
  8.316071e-01    2.728538e+04
  8.847253e-01    1.661974e+04
  9.378435e-01    9.362427e+03
  9.909616e-01    9.942057e+03
  1.044080e+00    1.010791e+04
  1.097198e+00    9.852343e+03
  1.150316e+00    1.023482e+04
  1.203434e+00    1.093379e+04
  1.256552e+00    1.195878e+04
  1.309671e+00    1.278936e+04
  1.362789e+00    1.368162e+04
  1.415907e+00    1.436486e+04
  1.469025e+00    1.459640e+04
  1.522143e+00    1.451402e+04
  1.575261e+00    1.406159e+04
  1.628380e+00    1.592250e+04
  1.681498e+00    1.762345e+04
  1.734616e+00    1.247523e+04
  1.787734e+00    1.046762e+04
  1.840852e+00    9.705501e+03
  1.893970e+00    9.171712e+03
  1.947089e+00    9.079846e+03
  2.000207e+00    8.713679e+03
  2.053325e+00    8.005623e+03
  2.106443e+00    7.779574e+03
  2.159561e+00    7.912053e+03
  2.212679e+00    8.080053e+03
  2.265797e+00    8.302935e+03
  2.318916e+00    8.184969e+03
  2.372034e+00    8.828392e+03
  2.425152e+00    1.324429e+04
  2.478270e+00    9.270492e+03
  2.531388e+00    8.068580e+03
  2.584506e+00    8.838119e+03
  2.637625e+00    8.701948e+03
  2.690743e+00    9.162256e+03
  2.743861e+00    1.248958e+04
  2.796979e+00    8.132353e+03
  2.850097e+00    5.814077e+03
  2.903215e+00    5.396767e+03
  2.956334e+00    5.228319e+03
  3.009452e+00    5.345580e+03
  3.062570e+00    6.193584e+03
  3.115688e+00    7.839954e+03
  3.168806e+00    8.787936e+03
  3.221924e+00    1.050473e+04
  3.275043e+00    9.700620e+03
  3.328161e+00    6.182671e+03
  3.381279e+00    5.925747e+03
  3.434397e+00    5.326137e+03
  3.487515e+00    5.037924e+03
  3.540633e+00    4.968616e+03
  3.593751e+00    5.077549e+03
  3.646870e+00    6.180466e+03
  3.699988e+00    5.507431e+03
  3.753106e+00    4.933116e+03
  3.806224e+00    5.104896e+03
  3.859342e+00    5.857328e+03
  3.912460e+00    5.570248e+03
  3.965579e+00    5.143096e+03
  4.018697e+00    5.472248e+03
  4.071815e+00    7.446153e+03
  4.124933e+00    7.995889e+03
  4.178051e+00    8.618214e+03
  4.231169e+00    6.761803e+03
  4.284288e+00    6.399534e+03
  4.337406e+00    7.249058e+03
  4.390524e+00    7.870265e+03
  4.443642e+00    1.022181e+04
  4.496760e+00    1.186147e+04
  4.549878e+00    9.421143e+03
  4.602997e+00    6.158410e+03
  4.656115e+00    5.203282e+03
  4.709233e+00    5.343451e+03
  4.762351e+00    6.003123e+03
  4.815469e+00    5.676926e+03
  4.868587e+00    5.327690e+03
  4.921705e+00    5.743667e+03
  4.974824e+00    5.593104e+03
  5.027942e+00    5.784031e+03
  5.081060e+00    5.681825e+03
  5.134178e+00    5.201753e+03
  5.187296e+00    5.109652e+03
  5.240414e+00    5.267967e+03
  5.293533e+00    4.894262e+03
  5.346651e+00    4.498158e+03
  5.399769e+00    4.294833e+03
  5.452887e+00    4.416275e+03
  5.506005e+00    4.574772e+03
  5.559123e+00    4.073887e+03
  5.612242e+00    3.916609e+03
  5.665360e+00    3.824518e+03
  5.718478e+00    3.545693e+03
  5.771596e+00    3.545715e+03
  5.824714e+00    3.676666e+03
  5.877832e+00    3.646307e+03
  5.930951e+00    3.717793e+03
  5.984069e+00    3.837619e+03
  6.037187e+00    3.758258e+03
  6.090305e+00    3.760407e+03
  6.143423e+00    3.714798e+03
  6.196541e+00    3.716169e+03
  6.249660e+00    4.223649e+03
  6.302778e+00    4.304806e+03
  6.355896e+00    3.972033e+03
  6.409014e+00    4.108934e+03
  6.462132e+00    3.971632e+03
  6.515250e+00    3.843651e+03
  6.568368e+00    3.664871e+03
  6.621487e+00    3.695218e+03
  6.674605e+00    3.622480e+03
  6.727723e+00    3.441776e+03
  6.780841e+00    3.382740e+03
  6.833959e+00    3.456465e+03
  6.887077e+00    3.374017e+03
  6.940196e+00    3.362989e+03
  6.993314e+00    3.426164e+03
  7.046432e+00    3.426046e+03
  7.099550e+00    3.675276e+03
  7.152668e+00    3.701618e+03
  7.205786e+00    3.422457e+03
  7.258905e+00    3.336736e+03
  7.312023e+00    3.200399e+03
  7.365141e+00    3.144701e+03
  7.418259e+00    3.112503e+03
  7.471377e+00    3.127144e+03
  7.524495e+00    3.224348e+03
  7.577614e+00    3.241156e+03
  7.630732e+00    3.299619e+03
  7.683850e+00    3.495013e+03
  7.736968e+00    3.665778e+03
  7.790086e+00    3.712181e+03
  7.843204e+00    3.604299e+03
  7.896322e+00    3.266844e+03
  7.949441e+00    3.057738e+03
  8.002559e+00    2.999207e+03
  8.055677e+00    2.985496e+03
  8.108795e+00    3.011198e+03
  8.161913e+00    3.147025e+03
  8.215031e+00    3.283091e+03
  8.268150e+00    3.113736e+03
  8.321268e+00    3.006174e+03
  8.374386e+00    3.030869e+03
  8.427504e+00    2.982244e+03
  8.480622e+00    2.949458e+03
  8.533740e+00    2.994502e+03
  8.586859e+00    3.027889e+03
  8.639977e+00    3.014124e+03
  8.693095e+00    2.957698e+03
  8.746213e+00    2.929030e+03
  8.799331e+00    2.920954e+03
  8.852449e+00    2.874070e+03
  8.905568e+00    2.857891e+03
  8.958686e+00    2.913979e+03
  9.011804e+00    2.918589e+03
  9.064922e+00    2.857627e+03
  9.118040e+00    2.736634e+03
  9.171158e+00    2.727009e+03
  9.224276e+00    2.750027e+03
  9.277395e+00    2.705359e+03
  9.330513e+00    2.672263e+03
  9.383631e+00    2.671754e+03
  9.436749e+00    2.655815e+03
  9.489867e+00    2.668097e+03
  9.542985e+00    2.681878e+03
  9.596104e+00    2.678393e+03
  9.649222e+00    2.633736e+03
  9.702340e+00    2.608115e+03
  9.755458e+00    2.614201e+03
  9.808576e+00    2.580486e+03
  9.861694e+00    2.574918e+03
  9.914813e+00    2.583141e+03
  9.967931e+00    2.586184e+03
  1.002105e+01    2.565167e+03
  1.007417e+01    2.521684e+03
  1.012729e+01    2.472888e+03
  1.018040e+01    2.464003e+03
  1.023352e+01    2.464271e+03
  1.028664e+01    2.456116e+03
  1.033976e+01    2.470491e+03
  1.039288e+01    2.481907e+03
  1.044599e+01    2.456382e+03
  1.049911e+01    2.462406e+03
  1.055223e+01    2.449969e+03
  1.060535e+01    2.431267e+03
  1.065847e+01    2.419571e+03
  1.071158e+01    2.412422e+03
  1.076470e+01    2.400212e+03
  1.081782e+01    2.427701e+03
  1.087094e+01    2.437846e+03
  1.092406e+01    2.424167e+03
  1.097718e+01    2.409022e+03
  1.103029e+01    2.376021e+03
  1.108341e+01    2.361964e+03
  1.113653e+01    2.353991e+03
  1.118965e+01    2.337204e+03
  1.124277e+01    2.326903e+03
  1.129588e+01    2.322610e+03
  1.134900e+01    2.318196e+03
  1.140212e+01    2.298271e+03
  1.145524e+01    2.276960e+03
  1.150836e+01    2.275022e+03
  1.156148e+01    2.280771e+03
  1.161459e+01    2.289742e+03
  1.166771e+01    2.275920e+03
  1.172083e+01    2.292423e+03
  1.177395e+01    2.283204e+03
  1.182707e+01    2.285563e+03
  1.188018e+01    2.298846e+03
  1.193330e+01    2.290218e+03
  1.198642e+01    2.272819e+03
  1.203954e+01    2.246863e+03
  1.209266e+01    2.236536e+03
  1.214578e+01    2.228617e+03
  1.219889e+01    2.230202e+03
  1.225201e+01    2.237452e+03
  1.230513e+01    2.248333e+03
  1.235825e+01    2.251930e+03
  1.241137e+01    2.232320e+03
  1.246448e+01    2.230427e+03
  1.251760e+01    2.236601e+03
  1.257072e+01    2.232650e+03
  1.262384e+01    2.229768e+03
  1.267696e+01    2.215940e+03
  1.273008e+01    2.204825e+03
  1.278319e+01    2.186811e+03
  1.283631e+01    2.169722e+03
  1.288943e+01    2.162827e+03
  1.294255e+01    2.148978e+03
  1.299567e+01    2.143953e+03
  1.304878e+01    2.135141e+03
  1.310190e+01    2.132689e+03
  1.315502e+01    2.131121e+03
  1.320814e+01    2.108093e+03
  1.326126e+01    2.073631e+03
  1.331437e+01    2.055291e+03
  1.336749e+01    2.043595e+03
  1.342061e+01    2.027711e+03
  1.347373e+01    2.054125e+03
  1.352685e+01    2.057121e+03
  1.357997e+01    2.049835e+03
  1.363308e+01    2.041214e+03
  1.368620e+01    2.029435e+03
  1.373932e+01    2.016004e+03
  1.379244e+01    2.005671e+03
  1.384556e+01    1.999774e+03
  1.389867e+01    1.996201e+03
  1.395179e+01    1.990016e+03
  1.400491e+01    1.989900e+03
  1.405803e+01    1.981896e+03
  1.411115e+01    1.974632e+03
  1.416427e+01    1.970466e+03
  1.421738e+01    1.967721e+03
  1.427050e+01    1.961758e+03
  1.432362e+01    1.964168e+03
  1.437674e+01    1.968224e+03
  1.442986e+01    1.954760e+03
  1.448297e+01    1.944676e+03
  1.453609e+01    1.937281e+03
  1.458921e+01    1.926749e+03
  1.464233e+01    1.921575e+03
  1.469545e+01    1.918602e+03
  1.474857e+01    1.902541e+03
  1.480168e+01    1.917577e+03
  1.485480e+01    1.911952e+03
  1.490792e+01    1.905509e+03
  1.496104e+01    1.896688e+03
  1.501416e+01    1.894427e+03
  1.506727e+01    1.886351e+03
  1.512039e+01    1.884260e+03
  1.517351e+01    1.895247e+03
  1.522663e+01    1.907742e+03
  1.527975e+01    1.904073e+03
  1.533286e+01    1.891122e+03
  1.538598e+01    1.876477e+03
  1.543910e+01    1.867375e+03
  1.549222e+01    1.864622e+03
  1.554534e+01    1.868712e+03
  1.559846e+01    1.867314e+03
  1.565157e+01    1.858458e+03
  1.570469e+01    1.850431e+03
  1.575781e+01    1.845869e+03
  1.581093e+01    1.841144e+03
  1.586405e+01    1.839259e+03
  1.591716e+01    1.834365e+03
  1.597028e+01    1.827028e+03
  1.602340e+01    1.811565e+03
  1.607652e+01    1.798853e+03
  1.612964e+01    1.774901e+03
  1.618276e+01    1.764077e+03
  1.623587e+01    1.768142e+03
  1.628899e+01    1.786052e+03
  1.634211e+01    1.783159e+03
  1.639523e+01    1.778953e+03
  1.644835e+01    1.782098e+03
  1.650146e+01    1.775787e+03
  1.655458e+01    1.776619e+03
  1.660770e+01    1.770991e+03
  1.666082e+01    1.762920e+03
  1.671394e+01    1.762912e+03
  1.676706e+01    1.758188e+03
  1.682017e+01    1.771979e+03
  1.687329e+01    1.760627e+03
  1.692641e+01    1.753848e+03
  1.697953e+01    1.749651e+03
  1.703265e+01    1.745102e+03
  1.708576e+01    1.743749e+03
  1.713888e+01    1.736479e+03
  1.719200e+01    1.733360e+03
  1.724512e+01    1.724219e+03
  1.729824e+01    1.725459e+03
  1.735136e+01    1.718844e+03
  1.740447e+01    1.694818e+03
  1.745759e+01    1.703655e+03
  1.751071e+01    1.704471e+03
  1.756383e+01    1.715708e+03
  1.761695e+01    1.697581e+03
  1.767006e+01    1.694746e+03
  1.772318e+01    1.685484e+03
  1.777630e+01    1.684516e+03
  1.782942e+01    1.676636e+03
  1.788254e+01    1.673874e+03
  1.793565e+01    1.671208e+03
  1.798877e+01    1.668680e+03
  1.804189e+01    1.660901e+03
  1.809501e+01    1.656893e+03
  1.814813e+01    1.653721e+03
  1.820125e+01    1.648539e+03
  1.825436e+01    1.653706e+03
  1.830748e+01    1.649099e+03
  1.836060e+01    1.643788e+03
  1.841372e+01    1.642736e+03
  1.846684e+01    1.637409e+03
  1.851995e+01    1.616356e+03
  1.857307e+01    1.602294e+03
  1.862619e+01    1.592481e+03
  1.867931e+01    1.587753e+03
  1.873243e+01    1.608348e+03
  1.878555e+01    1.611602e+03
  1.883866e+01    1.609783e+03
  1.889178e+01    1.608143e+03
  1.894490e+01    1.619740e+03
  1.899802e+01    1.609496e+03
  1.905114e+01    1.604719e+03
  1.910425e+01    1.599555e+03
  1.915737e+01    1.594720e+03
  1.921049e+01    1.590076e+03
  1.926361e+01    1.586473e+03
  1.931673e+01    1.583581e+03
  1.936985e+01    1.581754e+03
  1.942296e+01    1.579087e+03
  1.947608e+01    1.578635e+03
  1.952920e+01    1.573355e+03
  1.958232e+01    1.574668e+03
  1.963544e+01    1.579029e+03
  1.968855e+01    1.564829e+03
  1.974167e+01    1.552790e+03
  1.979479e+01    1.557140e+03
  1.984791e+01    1.554708e+03
  1.990103e+01    1.553476e+03
  1.995414e+01    1.551894e+03
  2.000726e+01    1.548707e+03
  2.006038e+01    1.545450e+03
  2.011350e+01    1.540634e+03
  2.016662e+01    1.536050e+03
  2.021974e+01    1.539064e+03
  2.027285e+01    1.545459e+03
  2.032597e+01    1.528130e+03
  2.037909e+01    1.524020e+03
  2.043221e+01    1.520383e+03
  2.048533e+01    1.517851e+03
  2.053844e+01    1.517737e+03
  2.059156e+01    1.511764e+03
  2.064468e+01    1.508160e+03
  2.069780e+01    1.488806e+03
  2.075092e+01    1.463742e+03
  2.080404e+01    1.448106e+03
  2.085715e+01    1.469184e+03
  2.091027e+01    1.495888e+03
  2.096339e+01    1.503939e+03
  2.101651e+01    1.509141e+03
  2.106963e+01    1.510976e+03
  2.112274e+01    1.515690e+03
  2.117586e+01    1.517671e+03
  2.122898e+01    1.520232e+03
  2.128210e+01    1.518074e+03
  2.133522e+01    1.518690e+03
  2.138834e+01    1.516296e+03
  2.144145e+01    1.517177e+03
  2.149457e+01    1.517144e+03
  2.154769e+01    1.516450e+03
  2.160081e+01    1.514048e+03
  2.165393e+01    1.515539e+03
  2.170704e+01    1.516602e+03
  2.176016e+01    1.505575e+03
  2.181328e+01    1.514032e+03
  2.186640e+01    1.515006e+03
  2.191952e+01    1.512522e+03
  2.197263e+01    1.511247e+03
  2.202575e+01    1.508178e+03
  2.207887e+01    1.508370e+03
  2.213199e+01    1.504545e+03
  2.218511e+01    1.505525e+03
  2.223823e+01    1.503950e+03
  2.229134e+01    1.503026e+03
  2.234446e+01    1.502023e+03
  2.239758e+01    1.501204e+03
  2.245070e+01    1.498710e+03
  2.250382e+01    1.500518e+03
  2.255693e+01    1.497608e+03
  2.261005e+01    1.477198e+03
  2.266317e+01    1.466854e+03
  2.271629e+01    1.457614e+03
  2.276941e+01    1.445926e+03
  2.282253e+01    1.440014e+03
  2.287564e+01    1.435654e+03
  2.292876e+01    1.430004e+03
  2.298188e+01    1.426369e+03
  2.303500e+01    1.425180e+03
  2.308812e+01    1.421365e+03
  2.314123e+01    1.419011e+03
  2.319435e+01    1.415219e+03
  2.324747e+01    1.406797e+03
  2.330059e+01    1.405749e+03
  2.335371e+01    1.403708e+03
  2.340683e+01    1.397872e+03
  2.345994e+01    1.394617e+03
  2.351306e+01    1.391326e+03
  2.356618e+01    1.387205e+03
  2.361930e+01    1.381015e+03
  2.367242e+01    1.376234e+03
  2.372553e+01    1.369206e+03
  2.377865e+01    1.366889e+03
  2.383177e+01    1.360427e+03
  2.388489e+01    1.354705e+03
  2.393801e+01    1.351669e+03
  2.399113e+01    1.348658e+03
  2.404424e+01    1.348740e+03
  2.409736e+01    1.345895e+03
  2.415048e+01    1.341977e+03
  2.420360e+01    1.338855e+03
  2.425672e+01    1.334076e+03
  2.430983e+01    1.330381e+03
  2.436295e+01    1.328773e+03
  2.441607e+01    1.326483e+03
  2.446919e+01    1.326048e+03
  2.452231e+01    1.325400e+03
  2.457542e+01    1.320729e+03
  2.462854e+01    1.317029e+03
  2.468166e+01    1.318931e+03
  2.473478e+01    1.312193e+03
  2.478790e+01    1.307461e+03
  2.484102e+01    1.303406e+03
  2.489413e+01    1.298175e+03
  2.494725e+01    1.292668e+03
  2.500037e+01    1.287792e+03
  2.505349e+01    1.283713e+03
  2.510661e+01    1.280312e+03
  2.515972e+01    1.277313e+03
  2.521284e+01    1.277277e+03
  2.526596e+01    1.274038e+03
  2.531908e+01    1.266161e+03
  2.537220e+01    1.265646e+03
  2.542532e+01    1.265114e+03
  2.547843e+01    1.262163e+03
  2.553155e+01    1.255011e+03
  2.558467e+01    1.245591e+03
  2.563779e+01    1.238947e+03
  2.569091e+01    1.234480e+03
  2.574402e+01    1.226124e+03
  2.579714e+01    1.219363e+03
  2.585026e+01    1.210045e+03
  2.590338e+01    1.202369e+03
  2.595650e+01    1.202739e+03
  2.600962e+01    1.203413e+03
  2.606273e+01    1.202279e+03
  2.611585e+01    1.200744e+03
  2.616897e+01    1.195720e+03
  2.622209e+01    1.197153e+03
  2.627521e+01    1.192267e+03
  2.632832e+01    1.188147e+03
  2.638144e+01    1.183351e+03
  2.643456e+01    1.173871e+03
  2.648768e+01    1.171860e+03
  2.654080e+01    1.125763e+03
