# == pyFAI calibration ==
# Distance Sample to Detector: 0.2946421923531691 m
# PONI: 2.875e-01, 2.439e-01 m
# Rotations: -0.010990 -0.009181 0.000003 rad
# 
# == Fit2d calibration ==
# Distance Sample-beamCenter: 294.672 mm
# Center: x=1436.809, y=1655.851 pix
# Tilt: 0.820 deg  TiltPlanRot: -39.874 deg
# 
# Detector Pilatus 2M	 PixelSize= 1.720e-04, 1.720e-04 m
#    Detector has a mask: True 
#    Detector has a dark current: False 
#    detector has a flat field: False 
# 
# Wavelength: 2.0732883349524408e-11 m
# Mask applied: from detector
# Dark current applied: False
# Flat field applied: False
# Polarization factor: None
# Normalization factor: 1.0
# --> /gpfs/current/raw/FMue_3/FMue_3_20231024_175355_00153.dat
#        q_A^-1             I 
  3.483473e-02             nan
  8.795289e-02             nan
  1.410711e-01             nan
  1.941892e-01             nan
  2.473074e-01             nan
  3.004255e-01             nan
  3.535437e-01             nan
  4.066619e-01    1.218751e+04
  4.597800e-01    1.115663e+04
  5.128982e-01    9.438612e+03
  5.660163e-01    8.534628e+03
  6.191345e-01    8.173742e+03
  6.722527e-01    8.039343e+03
  7.253708e-01    8.053148e+03
  7.784890e-01    8.080482e+03
  8.316071e-01    8.236368e+03
  8.847253e-01    8.340506e+03
  9.378435e-01    8.516627e+03
  9.909616e-01    8.707077e+03
  1.044080e+00    9.008804e+03
  1.097198e+00    9.413187e+03
  1.150316e+00    1.001146e+04
  1.203434e+00    1.071360e+04
  1.256552e+00    1.161054e+04
  1.309671e+00    1.274663e+04
  1.362789e+00    1.382466e+04
  1.415907e+00    1.430428e+04
  1.469025e+00    1.439763e+04
  1.522143e+00    1.425563e+04
  1.575261e+00    1.365769e+04
  1.628380e+00    1.291197e+04
  1.681498e+00    1.198896e+04
  1.734616e+00    1.103286e+04
  1.787734e+00    1.020943e+04
  1.840852e+00    9.497813e+03
  1.893970e+00    8.912228e+03
  1.947089e+00    8.513538e+03
  2.000207e+00    8.213124e+03
  2.053325e+00    8.119125e+03
  2.106443e+00    8.492223e+03
  2.159561e+00    9.299623e+03
  2.212679e+00    9.584839e+03
  2.265797e+00    9.324636e+03
  2.318916e+00    8.651534e+03
  2.372034e+00    7.948094e+03
  2.425152e+00    8.213548e+03
  2.478270e+00    9.558596e+03
  2.531388e+00    1.230321e+04
  2.584506e+00    1.330050e+04
  2.637625e+00    1.075712e+04
  2.690743e+00    8.664893e+03
  2.743861e+00    7.774843e+03
  2.796979e+00    6.482906e+03
  2.850097e+00    5.575409e+03
  2.903215e+00    5.270244e+03
  2.956334e+00    5.207885e+03
  3.009452e+00    5.552054e+03
  3.062570e+00    6.943608e+03
  3.115688e+00    9.254104e+03
  3.168806e+00    9.152778e+03
  3.221924e+00    7.375593e+03
  3.275043e+00    5.816641e+03
  3.328161e+00    4.933547e+03
  3.381279e+00    4.688605e+03
  3.434397e+00    4.694395e+03
  3.487515e+00    4.776023e+03
  3.540633e+00    4.696856e+03
  3.593751e+00    4.610376e+03
  3.646870e+00    4.671974e+03
  3.699988e+00    4.823421e+03
  3.753106e+00    5.067697e+03
  3.806224e+00    5.290204e+03
  3.859342e+00    5.396146e+03
  3.912460e+00    5.653304e+03
  3.965579e+00    6.338867e+03
  4.018697e+00    7.137001e+03
  4.071815e+00    7.312646e+03
  4.124933e+00    6.864947e+03
  4.178051e+00    6.435085e+03
  4.231169e+00    6.270387e+03
  4.284288e+00    6.611792e+03
  4.337406e+00    7.998436e+03
  4.390524e+00    1.007697e+04
  4.443642e+00    1.201571e+04
  4.496760e+00    1.237455e+04
  4.549878e+00    8.687135e+03
  4.602997e+00    5.965417e+03
  4.656115e+00    5.306691e+03
  4.709233e+00    5.089312e+03
  4.762351e+00    5.027619e+03
  4.815469e+00    5.068292e+03
  4.868587e+00    5.173175e+03
  4.921705e+00    5.254955e+03
  4.974824e+00    5.348123e+03
  5.027942e+00    5.458626e+03
  5.081060e+00    5.612591e+03
  5.134178e+00    5.474412e+03
  5.187296e+00    5.095799e+03
  5.240414e+00    4.712442e+03
  5.293533e+00    4.495621e+03
  5.346651e+00    4.387908e+03
  5.399769e+00    4.315842e+03
  5.452887e+00    4.294604e+03
  5.506005e+00    4.167004e+03
  5.559123e+00    3.810046e+03
  5.612242e+00    3.623599e+03
  5.665360e+00    3.581516e+03
  5.718478e+00    3.557285e+03
  5.771596e+00    3.588646e+03
  5.824714e+00    3.673507e+03
  5.877832e+00    3.833354e+03
  5.930951e+00    4.049851e+03
  5.984069e+00    4.122207e+03
  6.037187e+00    3.980350e+03
  6.090305e+00    3.807169e+03
  6.143423e+00    3.741713e+03
  6.196541e+00    3.869002e+03
  6.249660e+00    4.018272e+03
  6.302778e+00    3.909361e+03
  6.355896e+00    3.644931e+03
  6.409014e+00    3.536721e+03
  6.462132e+00    3.469085e+03
  6.515250e+00    3.422364e+03
  6.568368e+00    3.442400e+03
  6.621487e+00    3.497506e+03
  6.674605e+00    3.587659e+03
  6.727723e+00    3.638120e+03
  6.780841e+00    3.528613e+03
  6.833959e+00    3.363555e+03
  6.887077e+00    3.257554e+03
  6.940196e+00    3.221104e+03
  6.993314e+00    3.260466e+03
  7.046432e+00    3.267342e+03
  7.099550e+00    3.189178e+03
  7.152668e+00    3.127106e+03
  7.205786e+00    3.074155e+03
  7.258905e+00    3.054814e+03
  7.312023e+00    3.106301e+03
  7.365141e+00    3.191497e+03
  7.418259e+00    3.247553e+03
  7.471377e+00    3.266416e+03
  7.524495e+00    3.315489e+03
  7.577614e+00    3.435542e+03
  7.630732e+00    3.498274e+03
  7.683850e+00    3.556374e+03
  7.736968e+00    3.631418e+03
  7.790086e+00    3.529831e+03
  7.843204e+00    3.348402e+03
  7.896322e+00    3.208100e+03
  7.949441e+00    3.154196e+03
  8.002559e+00    3.155844e+03
  8.055677e+00    3.130986e+03
  8.108795e+00    3.077169e+03
  8.161913e+00    3.032949e+03
  8.215031e+00    2.983799e+03
  8.268150e+00    2.934018e+03
  8.321268e+00    2.897794e+03
  8.374386e+00    2.873585e+03
  8.427504e+00    2.854024e+03
  8.480622e+00    2.843168e+03
  8.533740e+00    2.795704e+03
  8.586859e+00    2.830080e+03
  8.639977e+00    2.821831e+03
  8.693095e+00    2.806617e+03
  8.746213e+00    2.813803e+03
  8.799331e+00    2.806368e+03
  8.852449e+00    2.789340e+03
  8.905568e+00    2.793269e+03
  8.958686e+00    2.792960e+03
  9.011804e+00    2.786904e+03
  9.064922e+00    2.736785e+03
  9.118040e+00    2.699949e+03
  9.171158e+00    2.682983e+03
  9.224276e+00    2.653091e+03
  9.277395e+00    2.603720e+03
  9.330513e+00    2.576056e+03
  9.383631e+00    2.552697e+03
  9.436749e+00    2.536032e+03
  9.489867e+00    2.549603e+03
  9.542985e+00    2.552448e+03
  9.596104e+00    2.549390e+03
  9.649222e+00    2.555173e+03
  9.702340e+00    2.552022e+03
  9.755458e+00    2.538214e+03
  9.808576e+00    2.534511e+03
  9.861694e+00    2.532438e+03
  9.914813e+00    2.524529e+03
  9.967931e+00    2.504049e+03
  1.002105e+01    2.471528e+03
  1.007417e+01    2.444038e+03
  1.012729e+01    2.422699e+03
  1.018040e+01    2.410188e+03
  1.023352e+01    2.379917e+03
  1.028664e+01    2.347126e+03
  1.033976e+01    2.331060e+03
  1.039288e+01    2.350068e+03
  1.044599e+01    2.337814e+03
  1.049911e+01    2.339457e+03
  1.055223e+01    2.326444e+03
  1.060535e+01    2.326792e+03
  1.065847e+01    2.318411e+03
  1.071158e+01    2.310972e+03
  1.076470e+01    2.299073e+03
  1.081782e+01    2.296787e+03
  1.087094e+01    2.289648e+03
  1.092406e+01    2.298203e+03
  1.097718e+01    2.304082e+03
  1.103029e+01    2.300525e+03
  1.108341e+01    2.291427e+03
  1.113653e+01    2.276688e+03
  1.118965e+01    2.255805e+03
  1.124277e+01    2.244143e+03
  1.129588e+01    2.237179e+03
  1.134900e+01    2.229894e+03
  1.140212e+01    2.235803e+03
  1.145524e+01    2.237532e+03
  1.150836e+01    2.244555e+03
  1.156148e+01    2.241863e+03
  1.161459e+01    2.244653e+03
  1.166771e+01    2.232609e+03
  1.172083e+01    2.233417e+03
  1.177395e+01    2.214836e+03
  1.182707e+01    2.205797e+03
  1.188018e+01    2.206583e+03
  1.193330e+01    2.191891e+03
  1.198642e+01    2.172653e+03
  1.203954e+01    2.151941e+03
  1.209266e+01    2.147613e+03
  1.214578e+01    2.140246e+03
  1.219889e+01    2.143874e+03
  1.225201e+01    2.145140e+03
  1.230513e+01    2.138511e+03
  1.235825e+01    2.139377e+03
  1.241137e+01    2.120760e+03
  1.246448e+01    2.119317e+03
  1.251760e+01    2.115423e+03
  1.257072e+01    2.110568e+03
  1.262384e+01    2.115849e+03
  1.267696e+01    2.102979e+03
  1.273008e+01    2.088615e+03
  1.278319e+01    2.080024e+03
  1.283631e+01    2.067828e+03
  1.288943e+01    2.062735e+03
  1.294255e+01    2.049993e+03
  1.299567e+01    2.045899e+03
  1.304878e+01    2.040141e+03
  1.310190e+01    2.037629e+03
  1.315502e+01    2.033826e+03
  1.320814e+01    2.011999e+03
  1.326126e+01    1.987661e+03
  1.331437e+01    1.979760e+03
  1.336749e+01    1.972687e+03
  1.342061e+01    1.961027e+03
  1.347373e+01    1.985002e+03
  1.352685e+01    1.983480e+03
  1.357997e+01    1.969017e+03
  1.363308e+01    1.958578e+03
  1.368620e+01    1.952804e+03
  1.373932e+01    1.944079e+03
  1.379244e+01    1.939165e+03
  1.384556e+01    1.933223e+03
  1.389867e+01    1.924327e+03
  1.395179e+01    1.914281e+03
  1.400491e+01    1.911912e+03
  1.405803e+01    1.909083e+03
  1.411115e+01    1.901149e+03
  1.416427e+01    1.893049e+03
  1.421738e+01    1.888588e+03
  1.427050e+01    1.879019e+03
  1.432362e+01    1.882012e+03
  1.437674e+01    1.876890e+03
  1.442986e+01    1.866905e+03
  1.448297e+01    1.860261e+03
  1.453609e+01    1.853383e+03
  1.458921e+01    1.843556e+03
  1.464233e+01    1.840714e+03
  1.469545e+01    1.832850e+03
  1.474857e+01    1.814113e+03
  1.480168e+01    1.825076e+03
  1.485480e+01    1.821211e+03
  1.490792e+01    1.816707e+03
  1.496104e+01    1.808315e+03
  1.501416e+01    1.806613e+03
  1.506727e+01    1.802180e+03
  1.512039e+01    1.799660e+03
  1.517351e+01    1.811112e+03
  1.522663e+01    1.824883e+03
  1.527975e+01    1.823375e+03
  1.533286e+01    1.806610e+03
  1.538598e+01    1.796186e+03
  1.543910e+01    1.790047e+03
  1.549222e+01    1.785455e+03
  1.554534e+01    1.783397e+03
  1.559846e+01    1.782237e+03
  1.565157e+01    1.774200e+03
  1.570469e+01    1.771652e+03
  1.575781e+01    1.768031e+03
  1.581093e+01    1.762724e+03
  1.586405e+01    1.761254e+03
  1.591716e+01    1.754763e+03
  1.597028e+01    1.751064e+03
  1.602340e+01    1.734260e+03
  1.607652e+01    1.722599e+03
  1.612964e+01    1.699659e+03
  1.618276e+01    1.686901e+03
  1.623587e+01    1.689328e+03
  1.628899e+01    1.706475e+03
  1.634211e+01    1.703909e+03
  1.639523e+01    1.698267e+03
  1.644835e+01    1.701788e+03
  1.650146e+01    1.693344e+03
  1.655458e+01    1.693264e+03
  1.660770e+01    1.688096e+03
  1.666082e+01    1.684538e+03
  1.671394e+01    1.683238e+03
  1.676706e+01    1.677756e+03
  1.682017e+01    1.691628e+03
  1.687329e+01    1.680305e+03
  1.692641e+01    1.673412e+03
  1.697953e+01    1.669865e+03
  1.703265e+01    1.664458e+03
  1.708576e+01    1.664647e+03
  1.713888e+01    1.655749e+03
  1.719200e+01    1.654422e+03
  1.724512e+01    1.648776e+03
  1.729824e+01    1.647123e+03
  1.735136e+01    1.641264e+03
  1.740447e+01    1.618874e+03
  1.745759e+01    1.626296e+03
  1.751071e+01    1.627828e+03
  1.756383e+01    1.639047e+03
  1.761695e+01    1.622844e+03
  1.767006e+01    1.621394e+03
  1.772318e+01    1.611221e+03
  1.777630e+01    1.611727e+03
  1.782942e+01    1.602289e+03
  1.788254e+01    1.598708e+03
  1.793565e+01    1.595829e+03
  1.798877e+01    1.594280e+03
  1.804189e+01    1.587703e+03
  1.809501e+01    1.582320e+03
  1.814813e+01    1.580453e+03
  1.820125e+01    1.575232e+03
  1.825436e+01    1.579714e+03
  1.830748e+01    1.573765e+03
  1.836060e+01    1.568230e+03
  1.841372e+01    1.565081e+03
  1.846684e+01    1.560430e+03
  1.851995e+01    1.541563e+03
  1.857307e+01    1.526933e+03
  1.862619e+01    1.518166e+03
  1.867931e+01    1.514693e+03
  1.873243e+01    1.533775e+03
  1.878555e+01    1.535796e+03
  1.883866e+01    1.534119e+03
  1.889178e+01    1.533473e+03
  1.894490e+01    1.544996e+03
  1.899802e+01    1.534615e+03
  1.905114e+01    1.529421e+03
  1.910425e+01    1.524469e+03
  1.915737e+01    1.520823e+03
  1.921049e+01    1.518153e+03
  1.926361e+01    1.514182e+03
  1.931673e+01    1.509554e+03
  1.936985e+01    1.507732e+03
  1.942296e+01    1.506466e+03
  1.947608e+01    1.505473e+03
  1.952920e+01    1.501183e+03
  1.958232e+01    1.502204e+03
  1.963544e+01    1.507341e+03
  1.968855e+01    1.493193e+03
  1.974167e+01    1.481116e+03
  1.979479e+01    1.485986e+03
  1.984791e+01    1.483978e+03
  1.990103e+01    1.482198e+03
  1.995414e+01    1.480758e+03
  2.000726e+01    1.477509e+03
  2.006038e+01    1.473307e+03
  2.011350e+01    1.469764e+03
  2.016662e+01    1.463726e+03
  2.021974e+01    1.466475e+03
  2.027285e+01    1.473065e+03
  2.032597e+01    1.457334e+03
  2.037909e+01    1.452278e+03
  2.043221e+01    1.448549e+03
  2.048533e+01    1.445971e+03
  2.053844e+01    1.446128e+03
  2.059156e+01    1.439396e+03
  2.064468e+01    1.436164e+03
  2.069780e+01    1.418036e+03
  2.075092e+01    1.394047e+03
  2.080404e+01    1.380402e+03
  2.085715e+01    1.398094e+03
  2.091027e+01    1.424375e+03
  2.096339e+01    1.432680e+03
  2.101651e+01    1.437921e+03
  2.106963e+01    1.440482e+03
  2.112274e+01    1.444739e+03
  2.117586e+01    1.445337e+03
  2.122898e+01    1.447350e+03
  2.128210e+01    1.446112e+03
  2.133522e+01    1.446461e+03
  2.138834e+01    1.443700e+03
  2.144145e+01    1.444131e+03
  2.149457e+01    1.444326e+03
  2.154769e+01    1.442358e+03
  2.160081e+01    1.442049e+03
  2.165393e+01    1.443956e+03
  2.170704e+01    1.443173e+03
  2.176016e+01    1.433405e+03
  2.181328e+01    1.441788e+03
  2.186640e+01    1.443214e+03
  2.191952e+01    1.441138e+03
  2.197263e+01    1.439000e+03
  2.202575e+01    1.437145e+03
  2.207887e+01    1.437494e+03
  2.213199e+01    1.436516e+03
  2.218511e+01    1.434066e+03
  2.223823e+01    1.434040e+03
  2.229134e+01    1.432688e+03
  2.234446e+01    1.430274e+03
  2.239758e+01    1.429925e+03
  2.245070e+01    1.428642e+03
  2.250382e+01    1.429539e+03
  2.255693e+01    1.426865e+03
  2.261005e+01    1.407144e+03
  2.266317e+01    1.395207e+03
  2.271629e+01    1.388034e+03
  2.276941e+01    1.377972e+03
  2.282253e+01    1.370337e+03
  2.287564e+01    1.367741e+03
  2.292876e+01    1.362526e+03
  2.298188e+01    1.360452e+03
  2.303500e+01    1.356271e+03
  2.308812e+01    1.354563e+03
  2.314123e+01    1.351575e+03
  2.319435e+01    1.349572e+03
  2.324747e+01    1.339511e+03
  2.330059e+01    1.336425e+03
  2.335371e+01    1.335604e+03
  2.340683e+01    1.329800e+03
  2.345994e+01    1.328001e+03
  2.351306e+01    1.323867e+03
  2.356618e+01    1.319360e+03
  2.361930e+01    1.314935e+03
  2.367242e+01    1.310311e+03
  2.372553e+01    1.302745e+03
  2.377865e+01    1.299085e+03
  2.383177e+01    1.292526e+03
  2.388489e+01    1.289389e+03
  2.393801e+01    1.284508e+03
  2.399113e+01    1.284891e+03
  2.404424e+01    1.282504e+03
  2.409736e+01    1.281472e+03
  2.415048e+01    1.278504e+03
  2.420360e+01    1.273522e+03
  2.425672e+01    1.271551e+03
  2.430983e+01    1.268232e+03
  2.436295e+01    1.265975e+03
  2.441607e+01    1.265251e+03
  2.446919e+01    1.262774e+03
  2.452231e+01    1.260853e+03
  2.457542e+01    1.257474e+03
  2.462854e+01    1.254784e+03
  2.468166e+01    1.252873e+03
  2.473478e+01    1.252010e+03
  2.478790e+01    1.243253e+03
  2.484102e+01    1.240891e+03
  2.489413e+01    1.234085e+03
  2.494725e+01    1.231371e+03
  2.500037e+01    1.228923e+03
  2.505349e+01    1.223656e+03
  2.510661e+01    1.216031e+03
  2.515972e+01    1.217407e+03
  2.521284e+01    1.215413e+03
  2.526596e+01    1.213645e+03
  2.531908e+01    1.208884e+03
  2.537220e+01    1.207106e+03
  2.542532e+01    1.203273e+03
  2.547843e+01    1.204040e+03
  2.553155e+01    1.196102e+03
  2.558467e+01    1.189634e+03
  2.563779e+01    1.183605e+03
  2.569091e+01    1.178244e+03
  2.574402e+01    1.168816e+03
  2.579714e+01    1.163883e+03
  2.585026e+01    1.154600e+03
  2.590338e+01    1.148201e+03
  2.595650e+01    1.147213e+03
  2.600962e+01    1.144889e+03
  2.606273e+01    1.147371e+03
  2.611585e+01    1.142916e+03
  2.616897e+01    1.142038e+03
  2.622209e+01    1.147556e+03
  2.627521e+01    1.134717e+03
  2.632832e+01    1.126159e+03
  2.638144e+01    1.134379e+03
  2.643456e+01    1.128114e+03
  2.648768e+01    1.104527e+03
  2.654080e+01    1.105865e+03
