# == pyFAI calibration ==
# Distance Sample to Detector: 0.2946421923531691 m
# PONI: 2.875e-01, 2.439e-01 m
# Rotations: -0.010990 -0.009181 0.000003 rad
# 
# == Fit2d calibration ==
# Distance Sample-beamCenter: 294.672 mm
# Center: x=1436.809, y=1655.851 pix
# Tilt: 0.820 deg  TiltPlanRot: -39.874 deg
# 
# Detector Pilatus 2M	 PixelSize= 1.720e-04, 1.720e-04 m
#    Detector has a mask: True 
#    Detector has a dark current: False 
#    detector has a flat field: False 
# 
# Wavelength: 2.0732883349524408e-11 m
# Mask applied: from detector
# Dark current applied: False
# Flat field applied: False
# Polarization factor: None
# Normalization factor: 1.0
# --> /gpfs/current/raw/FMue_3/FMue_3_20231024_175355_00054.dat
#        q_A^-1             I 
  3.483473e-02             nan
  8.795289e-02             nan
  1.410711e-01             nan
  1.941892e-01             nan
  2.473074e-01             nan
  3.004255e-01             nan
  3.535437e-01             nan
  4.066619e-01    1.139941e+04
  4.597800e-01    1.065353e+04
  5.128982e-01    9.370910e+03
  5.660163e-01    8.759731e+03
  6.191345e-01    8.627376e+03
  6.722527e-01    8.674363e+03
  7.253708e-01    9.014220e+03
  7.784890e-01    1.035144e+04
  8.316071e-01    1.441581e+04
  8.847253e-01    1.599193e+04
  9.378435e-01    1.446604e+04
  9.909616e-01    1.232889e+04
  1.044080e+00    1.087939e+04
  1.097198e+00    1.025925e+04
  1.150316e+00    1.049683e+04
  1.203434e+00    1.115893e+04
  1.256552e+00    1.213460e+04
  1.309671e+00    1.286493e+04
  1.362789e+00    1.378003e+04
  1.415907e+00    1.447497e+04
  1.469025e+00    1.471670e+04
  1.522143e+00    1.465104e+04
  1.575261e+00    1.417705e+04
  1.628380e+00    1.382328e+04
  1.681498e+00    1.353643e+04
  1.734616e+00    1.231044e+04
  1.787734e+00    1.114810e+04
  1.840852e+00    1.032314e+04
  1.893970e+00    9.585118e+03
  1.947089e+00    9.282333e+03
  2.000207e+00    8.813931e+03
  2.053325e+00    8.085495e+03
  2.106443e+00    7.858697e+03
  2.159561e+00    8.000094e+03
  2.212679e+00    8.199164e+03
  2.265797e+00    8.474278e+03
  2.318916e+00    8.551156e+03
  2.372034e+00    8.996545e+03
  2.425152e+00    1.009693e+04
  2.478270e+00    9.285887e+03
  2.531388e+00    9.200085e+03
  2.584506e+00    9.583936e+03
  2.637625e+00    9.405319e+03
  2.690743e+00    9.182407e+03
  2.743861e+00    9.397414e+03
  2.796979e+00    7.832960e+03
  2.850097e+00    6.424520e+03
  2.903215e+00    5.940694e+03
  2.956334e+00    5.752557e+03
  3.009452e+00    5.790043e+03
  3.062570e+00    6.418913e+03
  3.115688e+00    8.291009e+03
  3.168806e+00    9.089208e+03
  3.221924e+00    8.286027e+03
  3.275043e+00    7.173539e+03
  3.328161e+00    6.173958e+03
  3.381279e+00    6.131938e+03
  3.434397e+00    5.631737e+03
  3.487515e+00    5.346956e+03
  3.540633e+00    5.269633e+03
  3.593751e+00    5.159388e+03
  3.646870e+00    5.279808e+03
  3.699988e+00    5.285335e+03
  3.753106e+00    5.279048e+03
  3.806224e+00    5.315656e+03
  3.859342e+00    5.387019e+03
  3.912460e+00    5.434873e+03
  3.965579e+00    5.490928e+03
  4.018697e+00    5.914235e+03
  4.071815e+00    7.245984e+03
  4.124933e+00    8.209823e+03
  4.178051e+00    7.661283e+03
  4.231169e+00    6.814358e+03
  4.284288e+00    6.599217e+03
  4.337406e+00    7.000386e+03
  4.390524e+00    7.663772e+03
  4.443642e+00    9.898826e+03
  4.496760e+00    1.200621e+04
  4.549878e+00    9.212386e+03
  4.602997e+00    6.167475e+03
  4.656115e+00    5.453115e+03
  4.709233e+00    5.500846e+03
  4.762351e+00    5.856772e+03
  4.815469e+00    5.696683e+03
  4.868587e+00    5.463100e+03
  4.921705e+00    5.459415e+03
  4.974824e+00    5.439298e+03
  5.027942e+00    5.369133e+03
  5.081060e+00    5.355975e+03
  5.134178e+00    5.213287e+03
  5.187296e+00    5.070891e+03
  5.240414e+00    4.921716e+03
  5.293533e+00    4.751571e+03
  5.346651e+00    4.563778e+03
  5.399769e+00    4.412007e+03
  5.452887e+00    4.422438e+03
  5.506005e+00    4.492339e+03
  5.559123e+00    4.128833e+03
  5.612242e+00    3.849401e+03
  5.665360e+00    3.751840e+03
  5.718478e+00    3.614522e+03
  5.771596e+00    3.528087e+03
  5.824714e+00    3.525879e+03
  5.877832e+00    3.562101e+03
  5.930951e+00    3.646811e+03
  5.984069e+00    3.759889e+03
  6.037187e+00    3.809902e+03
  6.090305e+00    3.792772e+03
  6.143423e+00    3.731379e+03
  6.196541e+00    3.823620e+03
  6.249660e+00    4.168566e+03
  6.302778e+00    4.296687e+03
  6.355896e+00    4.021407e+03
  6.409014e+00    3.885503e+03
  6.462132e+00    3.763619e+03
  6.515250e+00    3.643541e+03
  6.568368e+00    3.585255e+03
  6.621487e+00    3.539841e+03
  6.674605e+00    3.490901e+03
  6.727723e+00    3.486666e+03
  6.780841e+00    3.457886e+03
  6.833959e+00    3.423794e+03
  6.887077e+00    3.375473e+03
  6.940196e+00    3.330109e+03
  6.993314e+00    3.379336e+03
  7.046432e+00    3.459570e+03
  7.099550e+00    3.500453e+03
  7.152668e+00    3.443833e+03
  7.205786e+00    3.324598e+03
  7.258905e+00    3.227906e+03
  7.312023e+00    3.174486e+03
  7.365141e+00    3.145928e+03
  7.418259e+00    3.153273e+03
  7.471377e+00    3.176347e+03
  7.524495e+00    3.212659e+03
  7.577614e+00    3.237911e+03
  7.630732e+00    3.261367e+03
  7.683850e+00    3.398095e+03
  7.736968e+00    3.628392e+03
  7.790086e+00    3.646742e+03
  7.843204e+00    3.438479e+03
  7.896322e+00    3.210376e+03
  7.949441e+00    3.063062e+03
  8.002559e+00    3.013077e+03
  8.055677e+00    3.013693e+03
  8.108795e+00    3.039205e+03
  8.161913e+00    3.101831e+03
  8.215031e+00    3.130677e+03
  8.268150e+00    3.070085e+03
  8.321268e+00    3.006050e+03
  8.374386e+00    2.980695e+03
  8.427504e+00    2.965375e+03
  8.480622e+00    2.953633e+03
  8.533740e+00    2.917979e+03
  8.586859e+00    2.947511e+03
  8.639977e+00    2.930219e+03
  8.693095e+00    2.899904e+03
  8.746213e+00    2.882670e+03
  8.799331e+00    2.856469e+03
  8.852449e+00    2.838140e+03
  8.905568e+00    2.851159e+03
  8.958686e+00    2.872535e+03
  9.011804e+00    2.881038e+03
  9.064922e+00    2.809810e+03
  9.118040e+00    2.718298e+03
  9.171158e+00    2.676618e+03
  9.224276e+00    2.666148e+03
  9.277395e+00    2.642546e+03
  9.330513e+00    2.631889e+03
  9.383631e+00    2.632499e+03
  9.436749e+00    2.633415e+03
  9.489867e+00    2.645323e+03
  9.542985e+00    2.637174e+03
  9.596104e+00    2.602055e+03
  9.649222e+00    2.582201e+03
  9.702340e+00    2.564663e+03
  9.755458e+00    2.558057e+03
  9.808576e+00    2.548757e+03
  9.861694e+00    2.552536e+03
  9.914813e+00    2.562304e+03
  9.967931e+00    2.557414e+03
  1.002105e+01    2.517671e+03
  1.007417e+01    2.463554e+03
  1.012729e+01    2.433379e+03
  1.018040e+01    2.434178e+03
  1.023352e+01    2.430343e+03
  1.028664e+01    2.419922e+03
  1.033976e+01    2.416151e+03
  1.039288e+01    2.438291e+03
  1.044599e+01    2.420517e+03
  1.049911e+01    2.418200e+03
  1.055223e+01    2.393232e+03
  1.060535e+01    2.389098e+03
  1.065847e+01    2.381068e+03
  1.071158e+01    2.377448e+03
  1.076470e+01    2.368787e+03
  1.081782e+01    2.378132e+03
  1.087094e+01    2.369211e+03
  1.092406e+01    2.366206e+03
  1.097718e+01    2.356322e+03
  1.103029e+01    2.345095e+03
  1.108341e+01    2.331009e+03
  1.113653e+01    2.314250e+03
  1.118965e+01    2.300252e+03
  1.124277e+01    2.293320e+03
  1.129588e+01    2.287425e+03
  1.134900e+01    2.273094e+03
  1.140212e+01    2.265748e+03
  1.145524e+01    2.252886e+03
  1.150836e+01    2.251146e+03
  1.156148e+01    2.243983e+03
  1.161459e+01    2.242702e+03
  1.166771e+01    2.240685e+03
  1.172083e+01    2.258979e+03
  1.177395e+01    2.253374e+03
  1.182707e+01    2.254397e+03
  1.188018e+01    2.261755e+03
  1.193330e+01    2.246863e+03
  1.198642e+01    2.231946e+03
  1.203954e+01    2.211933e+03
  1.209266e+01    2.204019e+03
  1.214578e+01    2.192940e+03
  1.219889e+01    2.195920e+03
  1.225201e+01    2.198228e+03
  1.230513e+01    2.195023e+03
  1.235825e+01    2.202967e+03
  1.241137e+01    2.190765e+03
  1.246448e+01    2.192846e+03
  1.251760e+01    2.193031e+03
  1.257072e+01    2.188755e+03
  1.262384e+01    2.190643e+03
  1.267696e+01    2.173723e+03
  1.273008e+01    2.155413e+03
  1.278319e+01    2.143268e+03
  1.283631e+01    2.133760e+03
  1.288943e+01    2.126376e+03
  1.294255e+01    2.112754e+03
  1.299567e+01    2.106762e+03
  1.304878e+01    2.098877e+03
  1.310190e+01    2.093596e+03
  1.315502e+01    2.088206e+03
  1.320814e+01    2.061269e+03
  1.326126e+01    2.031594e+03
  1.331437e+01    2.020256e+03
  1.336749e+01    2.007470e+03
  1.342061e+01    1.993241e+03
  1.347373e+01    2.017105e+03
  1.352685e+01    2.023249e+03
  1.357997e+01    2.013039e+03
  1.363308e+01    2.002846e+03
  1.368620e+01    1.992894e+03
  1.373932e+01    1.984035e+03
  1.379244e+01    1.976516e+03
  1.384556e+01    1.970902e+03
  1.389867e+01    1.961949e+03
  1.395179e+01    1.956802e+03
  1.400491e+01    1.952126e+03
  1.405803e+01    1.951516e+03
  1.411115e+01    1.944001e+03
  1.416427e+01    1.935191e+03
  1.421738e+01    1.931749e+03
  1.427050e+01    1.925972e+03
  1.432362e+01    1.928506e+03
  1.437674e+01    1.927453e+03
  1.442986e+01    1.914796e+03
  1.448297e+01    1.909488e+03
  1.453609e+01    1.900657e+03
  1.458921e+01    1.892356e+03
  1.464233e+01    1.888295e+03
  1.469545e+01    1.883586e+03
  1.474857e+01    1.864344e+03
  1.480168e+01    1.877260e+03
  1.485480e+01    1.874830e+03
  1.490792e+01    1.870200e+03
  1.496104e+01    1.861972e+03
  1.501416e+01    1.859541e+03
  1.506727e+01    1.853493e+03
  1.512039e+01    1.849149e+03
  1.517351e+01    1.863204e+03
  1.522663e+01    1.876004e+03
  1.527975e+01    1.871216e+03
  1.533286e+01    1.852743e+03
  1.538598e+01    1.843222e+03
  1.543910e+01    1.835093e+03
  1.549222e+01    1.832723e+03
  1.554534e+01    1.832383e+03
  1.559846e+01    1.829720e+03
  1.565157e+01    1.822516e+03
  1.570469e+01    1.815510e+03
  1.575781e+01    1.812563e+03
  1.581093e+01    1.806969e+03
  1.586405e+01    1.804984e+03
  1.591716e+01    1.799510e+03
  1.597028e+01    1.793573e+03
  1.602340e+01    1.779271e+03
  1.607652e+01    1.768149e+03
  1.612964e+01    1.746057e+03
  1.618276e+01    1.733212e+03
  1.623587e+01    1.735993e+03
  1.628899e+01    1.753184e+03
  1.634211e+01    1.750112e+03
  1.639523e+01    1.747050e+03
  1.644835e+01    1.748067e+03
  1.650146e+01    1.741328e+03
  1.655458e+01    1.739754e+03
  1.660770e+01    1.733858e+03
  1.666082e+01    1.730112e+03
  1.671394e+01    1.729868e+03
  1.676706e+01    1.724093e+03
  1.682017e+01    1.737746e+03
  1.687329e+01    1.727311e+03
  1.692641e+01    1.721356e+03
  1.697953e+01    1.715279e+03
  1.703265e+01    1.712007e+03
  1.708576e+01    1.709013e+03
  1.713888e+01    1.700960e+03
  1.719200e+01    1.701268e+03
  1.724512e+01    1.691726e+03
  1.729824e+01    1.693356e+03
  1.735136e+01    1.686791e+03
  1.740447e+01    1.663401e+03
  1.745759e+01    1.670244e+03
  1.751071e+01    1.672788e+03
  1.756383e+01    1.683624e+03
  1.761695e+01    1.666308e+03
  1.767006e+01    1.664772e+03
  1.772318e+01    1.652864e+03
  1.777630e+01    1.652933e+03
  1.782942e+01    1.645046e+03
  1.788254e+01    1.640045e+03
  1.793565e+01    1.637557e+03
  1.798877e+01    1.635395e+03
  1.804189e+01    1.629846e+03
  1.809501e+01    1.624320e+03
  1.814813e+01    1.622546e+03
  1.820125e+01    1.617159e+03
  1.825436e+01    1.622765e+03
  1.830748e+01    1.615606e+03
  1.836060e+01    1.611886e+03
  1.841372e+01    1.610220e+03
  1.846684e+01    1.604575e+03
  1.851995e+01    1.585635e+03
  1.857307e+01    1.572034e+03
  1.862619e+01    1.560884e+03
  1.867931e+01    1.557711e+03
  1.873243e+01    1.576981e+03
  1.878555e+01    1.578113e+03
  1.883866e+01    1.578375e+03
  1.889178e+01    1.578687e+03
  1.894490e+01    1.589300e+03
  1.899802e+01    1.579512e+03
  1.905114e+01    1.574523e+03
  1.910425e+01    1.569288e+03
  1.915737e+01    1.565032e+03
  1.921049e+01    1.560160e+03
  1.926361e+01    1.557099e+03
  1.931673e+01    1.553690e+03
  1.936985e+01    1.551192e+03
  1.942296e+01    1.549246e+03
  1.947608e+01    1.548091e+03
  1.952920e+01    1.543628e+03
  1.958232e+01    1.545681e+03
  1.963544e+01    1.550674e+03
  1.968855e+01    1.535351e+03
  1.974167e+01    1.523856e+03
  1.979479e+01    1.528273e+03
  1.984791e+01    1.527168e+03
  1.990103e+01    1.525578e+03
  1.995414e+01    1.523450e+03
  2.000726e+01    1.521139e+03
  2.006038e+01    1.516867e+03
  2.011350e+01    1.511664e+03
  2.016662e+01    1.507058e+03
  2.021974e+01    1.509225e+03
  2.027285e+01    1.516740e+03
  2.032597e+01    1.500727e+03
  2.037909e+01    1.495652e+03
  2.043221e+01    1.491107e+03
  2.048533e+01    1.489209e+03
  2.053844e+01    1.487928e+03
  2.059156e+01    1.482416e+03
  2.064468e+01    1.479981e+03
  2.069780e+01    1.460583e+03
  2.075092e+01    1.435985e+03
  2.080404e+01    1.421438e+03
  2.085715e+01    1.441194e+03
  2.091027e+01    1.468298e+03
  2.096339e+01    1.476159e+03
  2.101651e+01    1.479276e+03
  2.106963e+01    1.483833e+03
  2.112274e+01    1.487728e+03
  2.117586e+01    1.489773e+03
  2.122898e+01    1.491640e+03
  2.128210e+01    1.489475e+03
  2.133522e+01    1.489620e+03
  2.138834e+01    1.487356e+03
  2.144145e+01    1.487853e+03
  2.149457e+01    1.488023e+03
  2.154769e+01    1.486186e+03
  2.160081e+01    1.485353e+03
  2.165393e+01    1.486483e+03
  2.170704e+01    1.487554e+03
  2.176016e+01    1.475997e+03
  2.181328e+01    1.485447e+03
  2.186640e+01    1.486980e+03
  2.191952e+01    1.484824e+03
  2.197263e+01    1.483241e+03
  2.202575e+01    1.480637e+03
  2.207887e+01    1.480158e+03
  2.213199e+01    1.478130e+03
  2.218511e+01    1.477333e+03
  2.223823e+01    1.476440e+03
  2.229134e+01    1.474626e+03
  2.234446e+01    1.473709e+03
  2.239758e+01    1.473358e+03
  2.245070e+01    1.470904e+03
  2.250382e+01    1.471231e+03
  2.255693e+01    1.467192e+03
  2.261005e+01    1.448779e+03
  2.266317e+01    1.436905e+03
  2.271629e+01    1.427620e+03
  2.276941e+01    1.419090e+03
  2.282253e+01    1.411309e+03
  2.287564e+01    1.408465e+03
  2.292876e+01    1.402073e+03
  2.298188e+01    1.401122e+03
  2.303500e+01    1.396625e+03
  2.308812e+01    1.395811e+03
  2.314123e+01    1.392165e+03
  2.319435e+01    1.387980e+03
  2.324747e+01    1.380818e+03
  2.330059e+01    1.376864e+03
  2.335371e+01    1.374451e+03
  2.340683e+01    1.370718e+03
  2.345994e+01    1.368522e+03
  2.351306e+01    1.365200e+03
  2.356618e+01    1.361355e+03
  2.361930e+01    1.355090e+03
  2.367242e+01    1.348239e+03
  2.372553e+01    1.342823e+03
  2.377865e+01    1.339933e+03
  2.383177e+01    1.333884e+03
  2.388489e+01    1.328901e+03
  2.393801e+01    1.325493e+03
  2.399113e+01    1.322932e+03
  2.404424e+01    1.320338e+03
  2.409736e+01    1.320809e+03
  2.415048e+01    1.318136e+03
  2.420360e+01    1.313594e+03
  2.425672e+01    1.308703e+03
  2.430983e+01    1.306191e+03
  2.436295e+01    1.305199e+03
  2.441607e+01    1.302598e+03
  2.446919e+01    1.300065e+03
  2.452231e+01    1.299038e+03
  2.457542e+01    1.297786e+03
  2.462854e+01    1.292874e+03
  2.468166e+01    1.292536e+03
  2.473478e+01    1.288112e+03
  2.478790e+01    1.281591e+03
  2.484102e+01    1.279690e+03
  2.489413e+01    1.272263e+03
  2.494725e+01    1.269463e+03
  2.500037e+01    1.266202e+03
  2.505349e+01    1.260340e+03
  2.510661e+01    1.254260e+03
  2.515972e+01    1.252755e+03
  2.521284e+01    1.254001e+03
  2.526596e+01    1.248058e+03
  2.531908e+01    1.242682e+03
  2.537220e+01    1.243233e+03
  2.542532e+01    1.237105e+03
  2.547843e+01    1.238669e+03
  2.553155e+01    1.232704e+03
  2.558467e+01    1.227715e+03
  2.563779e+01    1.216872e+03
  2.569091e+01    1.212696e+03
  2.574402e+01    1.200014e+03
  2.579714e+01    1.197730e+03
  2.585026e+01    1.186834e+03
  2.590338e+01    1.184158e+03
  2.595650e+01    1.182775e+03
  2.600962e+01    1.180508e+03
  2.606273e+01    1.177038e+03
  2.611585e+01    1.178257e+03
  2.616897e+01    1.179555e+03
  2.622209e+01    1.175073e+03
  2.627521e+01    1.172418e+03
  2.632832e+01    1.164731e+03
  2.638144e+01    1.159245e+03
  2.643456e+01    1.156036e+03
  2.648768e+01    1.136897e+03
  2.654080e+01    1.139127e+03
