# == pyFAI calibration ==
# Distance Sample to Detector: 0.2946421923531691 m
# PONI: 2.875e-01, 2.439e-01 m
# Rotations: -0.010990 -0.009181 0.000003 rad
# 
# == Fit2d calibration ==
# Distance Sample-beamCenter: 294.672 mm
# Center: x=1436.809, y=1655.851 pix
# Tilt: 0.820 deg  TiltPlanRot: -39.874 deg
# 
# Detector Pilatus 2M	 PixelSize= 1.720e-04, 1.720e-04 m
#    Detector has a mask: True 
#    Detector has a dark current: False 
#    detector has a flat field: False 
# 
# Wavelength: 2.0732883349524408e-11 m
# Mask applied: from detector
# Dark current applied: False
# Flat field applied: False
# Polarization factor: None
# Normalization factor: 1.0
# --> /gpfs/current/raw/FMue_3/FMue_3_20231024_175355_00008.dat
#        q_A^-1             I 
  3.483473e-02             nan
  8.795289e-02             nan
  1.410711e-01             nan
  1.941892e-01             nan
  2.473074e-01             nan
  3.004255e-01             nan
  3.535437e-01             nan
  4.066619e-01    9.509258e+03
  4.597800e-01    9.062776e+03
  5.128982e-01    8.169040e+03
  5.660163e-01    7.838447e+03
  6.191345e-01    7.874578e+03
  6.722527e-01    8.020725e+03
  7.253708e-01    8.378604e+03
  7.784890e-01    1.363799e+04
  8.316071e-01    2.721606e+04
  8.847253e-01    1.649290e+04
  9.378435e-01    9.371496e+03
  9.909616e-01    9.942517e+03
  1.044080e+00    1.013465e+04
  1.097198e+00    9.941291e+03
  1.150316e+00    1.031324e+04
  1.203434e+00    1.101308e+04
  1.256552e+00    1.204465e+04
  1.309671e+00    1.301113e+04
  1.362789e+00    1.385124e+04
  1.415907e+00    1.455327e+04
  1.469025e+00    1.477554e+04
  1.522143e+00    1.470268e+04
  1.575261e+00    1.424350e+04
  1.628380e+00    1.629204e+04
  1.681498e+00    1.804655e+04
  1.734616e+00    1.262697e+04
  1.787734e+00    1.059655e+04
  1.840852e+00    9.836508e+03
  1.893970e+00    9.304152e+03
  1.947089e+00    9.205700e+03
  2.000207e+00    8.852452e+03
  2.053325e+00    8.134265e+03
  2.106443e+00    7.888441e+03
  2.159561e+00    8.011995e+03
  2.212679e+00    8.183750e+03
  2.265797e+00    8.404140e+03
  2.318916e+00    8.270253e+03
  2.372034e+00    8.817706e+03
  2.425152e+00    1.352452e+04
  2.478270e+00    9.552109e+03
  2.531388e+00    8.131180e+03
  2.584506e+00    8.925855e+03
  2.637625e+00    8.806263e+03
  2.690743e+00    9.174205e+03
  2.743861e+00    1.262134e+04
  2.796979e+00    8.316209e+03
  2.850097e+00    5.873819e+03
  2.903215e+00    5.440642e+03
  2.956334e+00    5.265476e+03
  3.009452e+00    5.374315e+03
  3.062570e+00    6.203386e+03
  3.115688e+00    7.865801e+03
  3.168806e+00    8.878025e+03
  3.221924e+00    1.068454e+04
  3.275043e+00    1.004212e+04
  3.328161e+00    6.281876e+03
  3.381279e+00    6.004925e+03
  3.434397e+00    5.374819e+03
  3.487515e+00    5.066018e+03
  3.540633e+00    5.000673e+03
  3.593751e+00    5.111794e+03
  3.646870e+00    6.301291e+03
  3.699988e+00    5.599666e+03
  3.753106e+00    4.955079e+03
  3.806224e+00    5.129371e+03
  3.859342e+00    5.909863e+03
  3.912460e+00    5.631409e+03
  3.965579e+00    5.161809e+03
  4.018697e+00    5.465276e+03
  4.071815e+00    7.390479e+03
  4.124933e+00    8.127386e+03
  4.178051e+00    8.753360e+03
  4.231169e+00    6.938118e+03
  4.284288e+00    6.440293e+03
  4.337406e+00    7.303179e+03
  4.390524e+00    7.862309e+03
  4.443642e+00    1.028473e+04
  4.496760e+00    1.201044e+04
  4.549878e+00    9.695154e+03
  4.602997e+00    6.281801e+03
  4.656115e+00    5.226812e+03
  4.709233e+00    5.329566e+03
  4.762351e+00    6.055450e+03
  4.815469e+00    5.755866e+03
  4.868587e+00    5.358499e+03
  4.921705e+00    5.793480e+03
  4.974824e+00    5.705348e+03
  5.027942e+00    5.896007e+03
  5.081060e+00    5.765868e+03
  5.134178e+00    5.259244e+03
  5.187296e+00    5.139869e+03
  5.240414e+00    5.349667e+03
  5.293533e+00    4.973000e+03
  5.346651e+00    4.540546e+03
  5.399769e+00    4.327797e+03
  5.452887e+00    4.443547e+03
  5.506005e+00    4.636874e+03
  5.559123e+00    4.122222e+03
  5.612242e+00    3.949625e+03
  5.665360e+00    3.879893e+03
  5.718478e+00    3.569669e+03
  5.771596e+00    3.579334e+03
  5.824714e+00    3.718944e+03
  5.877832e+00    3.682176e+03
  5.930951e+00    3.740867e+03
  5.984069e+00    3.887512e+03
  6.037187e+00    3.798116e+03
  6.090305e+00    3.793414e+03
  6.143423e+00    3.746215e+03
  6.196541e+00    3.727858e+03
  6.249660e+00    4.225582e+03
  6.302778e+00    4.388339e+03
  6.355896e+00    4.000935e+03
  6.409014e+00    4.176059e+03
  6.462132e+00    4.067002e+03
  6.515250e+00    3.910711e+03
  6.568368e+00    3.715879e+03
  6.621487e+00    3.720291e+03
  6.674605e+00    3.684154e+03
  6.727723e+00    3.476583e+03
  6.780841e+00    3.403552e+03
  6.833959e+00    3.479924e+03
  6.887077e+00    3.409721e+03
  6.940196e+00    3.380233e+03
  6.993314e+00    3.473775e+03
  7.046432e+00    3.447979e+03
  7.099550e+00    3.719344e+03
  7.152668e+00    3.799012e+03
  7.205786e+00    3.478657e+03
  7.258905e+00    3.380436e+03
  7.312023e+00    3.245185e+03
  7.365141e+00    3.165242e+03
  7.418259e+00    3.131143e+03
  7.471377e+00    3.140148e+03
  7.524495e+00    3.252588e+03
  7.577614e+00    3.273545e+03
  7.630732e+00    3.329537e+03
  7.683850e+00    3.533260e+03
  7.736968e+00    3.713902e+03
  7.790086e+00    3.776787e+03
  7.843204e+00    3.690237e+03
  7.896322e+00    3.325925e+03
  7.949441e+00    3.087853e+03
  8.002559e+00    3.017355e+03
  8.055677e+00    3.001910e+03
  8.108795e+00    3.026552e+03
  8.161913e+00    3.164785e+03
  8.215031e+00    3.339975e+03
  8.268150e+00    3.173173e+03
  8.321268e+00    3.027534e+03
  8.374386e+00    3.066778e+03
  8.427504e+00    3.013620e+03
  8.480622e+00    2.968819e+03
  8.533740e+00    3.018100e+03
  8.586859e+00    3.072268e+03
  8.639977e+00    3.056377e+03
  8.693095e+00    2.998252e+03
  8.746213e+00    2.961604e+03
  8.799331e+00    2.955266e+03
  8.852449e+00    2.908384e+03
  8.905568e+00    2.881887e+03
  8.958686e+00    2.944744e+03
  9.011804e+00    2.956611e+03
  9.064922e+00    2.898815e+03
  9.118040e+00    2.770709e+03
  9.171158e+00    2.757423e+03
  9.224276e+00    2.791323e+03
  9.277395e+00    2.746284e+03
  9.330513e+00    2.703292e+03
  9.383631e+00    2.703267e+03
  9.436749e+00    2.676666e+03
  9.489867e+00    2.696343e+03
  9.542985e+00    2.713190e+03
  9.596104e+00    2.719929e+03
  9.649222e+00    2.673715e+03
  9.702340e+00    2.640430e+03
  9.755458e+00    2.653034e+03
  9.808576e+00    2.613174e+03
  9.861694e+00    2.598054e+03
  9.914813e+00    2.607851e+03
  9.967931e+00    2.617559e+03
  1.002105e+01    2.602582e+03
  1.007417e+01    2.559842e+03
  1.012729e+01    2.502534e+03
  1.018040e+01    2.493906e+03
  1.023352e+01    2.494930e+03
  1.028664e+01    2.482902e+03
  1.033976e+01    2.503063e+03
  1.039288e+01    2.515080e+03
  1.044599e+01    2.485138e+03
  1.049911e+01    2.491335e+03
  1.055223e+01    2.486237e+03
  1.060535e+01    2.465239e+03
  1.065847e+01    2.447344e+03
  1.071158e+01    2.439294e+03
  1.076470e+01    2.424607e+03
  1.081782e+01    2.453664e+03
  1.087094e+01    2.477675e+03
  1.092406e+01    2.459658e+03
  1.097718e+01    2.444685e+03
  1.103029e+01    2.407702e+03
  1.108341e+01    2.386599e+03
  1.113653e+01    2.382177e+03
  1.118965e+01    2.365194e+03
  1.124277e+01    2.354616e+03
  1.129588e+01    2.350923e+03
  1.134900e+01    2.352082e+03
  1.140212e+01    2.328549e+03
  1.145524e+01    2.299534e+03
  1.150836e+01    2.296850e+03
  1.156148e+01    2.303915e+03
  1.161459e+01    2.321043e+03
  1.166771e+01    2.303817e+03
  1.172083e+01    2.322329e+03
  1.177395e+01    2.310546e+03
  1.182707e+01    2.313122e+03
  1.188018e+01    2.327972e+03
  1.193330e+01    2.323609e+03
  1.198642e+01    2.304848e+03
  1.203954e+01    2.277012e+03
  1.209266e+01    2.262486e+03
  1.214578e+01    2.254676e+03
  1.219889e+01    2.254984e+03
  1.225201e+01    2.262689e+03
  1.230513e+01    2.280353e+03
  1.235825e+01    2.285840e+03
  1.241137e+01    2.264225e+03
  1.246448e+01    2.257055e+03
  1.251760e+01    2.264737e+03
  1.257072e+01    2.263434e+03
  1.262384e+01    2.260516e+03
  1.267696e+01    2.243278e+03
  1.273008e+01    2.237452e+03
  1.278319e+01    2.217975e+03
  1.283631e+01    2.195103e+03
  1.288943e+01    2.188559e+03
  1.294255e+01    2.175809e+03
  1.299567e+01    2.171864e+03
  1.304878e+01    2.161879e+03
  1.310190e+01    2.158381e+03
  1.315502e+01    2.159580e+03
  1.320814e+01    2.137585e+03
  1.326126e+01    2.103357e+03
  1.331437e+01    2.085010e+03
  1.336749e+01    2.069998e+03
  1.342061e+01    2.053290e+03
  1.347373e+01    2.078774e+03
  1.352685e+01    2.082335e+03
  1.357997e+01    2.076310e+03
  1.363308e+01    2.069601e+03
  1.368620e+01    2.056704e+03
  1.373932e+01    2.039996e+03
  1.379244e+01    2.027960e+03
  1.384556e+01    2.022452e+03
  1.389867e+01    2.019818e+03
  1.395179e+01    2.016305e+03
  1.400491e+01    2.014570e+03
  1.405803e+01    2.008867e+03
  1.411115e+01    1.998496e+03
  1.416427e+01    1.993175e+03
  1.421738e+01    1.993901e+03
  1.427050e+01    1.985373e+03
  1.432362e+01    1.989341e+03
  1.437674e+01    1.990801e+03
  1.442986e+01    1.981082e+03
  1.448297e+01    1.971640e+03
  1.453609e+01    1.961880e+03
  1.458921e+01    1.950442e+03
  1.464233e+01    1.945085e+03
  1.469545e+01    1.940706e+03
  1.474857e+01    1.926524e+03
  1.480168e+01    1.944569e+03
  1.485480e+01    1.939608e+03
  1.490792e+01    1.931438e+03
  1.496104e+01    1.920148e+03
  1.501416e+01    1.918660e+03
  1.506727e+01    1.911417e+03
  1.512039e+01    1.906974e+03
  1.517351e+01    1.919405e+03
  1.522663e+01    1.932276e+03
  1.527975e+01    1.928836e+03
  1.533286e+01    1.914426e+03
  1.538598e+01    1.903508e+03
  1.543910e+01    1.890810e+03
  1.549222e+01    1.887545e+03
  1.554534e+01    1.893305e+03
  1.559846e+01    1.890519e+03
  1.565157e+01    1.882356e+03
  1.570469e+01    1.875406e+03
  1.575781e+01    1.871249e+03
  1.581093e+01    1.864943e+03
  1.586405e+01    1.864450e+03
  1.591716e+01    1.857699e+03
  1.597028e+01    1.851694e+03
  1.602340e+01    1.832923e+03
  1.607652e+01    1.820716e+03
  1.612964e+01    1.796502e+03
  1.618276e+01    1.787149e+03
  1.623587e+01    1.788761e+03
  1.628899e+01    1.805702e+03
  1.634211e+01    1.804722e+03
  1.639523e+01    1.801432e+03
  1.644835e+01    1.804931e+03
  1.650146e+01    1.798509e+03
  1.655458e+01    1.798418e+03
  1.660770e+01    1.794843e+03
  1.666082e+01    1.787755e+03
  1.671394e+01    1.785972e+03
  1.676706e+01    1.780723e+03
  1.682017e+01    1.794003e+03
  1.687329e+01    1.783248e+03
  1.692641e+01    1.776745e+03
  1.697953e+01    1.771571e+03
  1.703265e+01    1.767455e+03
  1.708576e+01    1.766521e+03
  1.713888e+01    1.756854e+03
  1.719200e+01    1.757314e+03
  1.724512e+01    1.752231e+03
  1.729824e+01    1.747620e+03
  1.735136e+01    1.741988e+03
  1.740447e+01    1.717208e+03
  1.745759e+01    1.725884e+03
  1.751071e+01    1.725688e+03
  1.756383e+01    1.736601e+03
  1.761695e+01    1.719041e+03
  1.767006e+01    1.715166e+03
  1.772318e+01    1.705185e+03
  1.777630e+01    1.704950e+03
  1.782942e+01    1.698032e+03
  1.788254e+01    1.695610e+03
  1.793565e+01    1.692269e+03
  1.798877e+01    1.689034e+03
  1.804189e+01    1.682431e+03
  1.809501e+01    1.676695e+03
  1.814813e+01    1.673611e+03
  1.820125e+01    1.669526e+03
  1.825436e+01    1.674465e+03
  1.830748e+01    1.668701e+03
  1.836060e+01    1.663683e+03
  1.841372e+01    1.662127e+03
  1.846684e+01    1.656902e+03
  1.851995e+01    1.636489e+03
  1.857307e+01    1.622007e+03
  1.862619e+01    1.610611e+03
  1.867931e+01    1.607489e+03
  1.873243e+01    1.628607e+03
  1.878555e+01    1.631310e+03
  1.883866e+01    1.630560e+03
  1.889178e+01    1.629339e+03
  1.894490e+01    1.640871e+03
  1.899802e+01    1.629488e+03
  1.905114e+01    1.626005e+03
  1.910425e+01    1.619555e+03
  1.915737e+01    1.615612e+03
  1.921049e+01    1.610678e+03
  1.926361e+01    1.606969e+03
  1.931673e+01    1.603675e+03
  1.936985e+01    1.602541e+03
  1.942296e+01    1.600424e+03
  1.947608e+01    1.598985e+03
  1.952920e+01    1.594729e+03
  1.958232e+01    1.595827e+03
  1.963544e+01    1.600591e+03
  1.968855e+01    1.585525e+03
  1.974167e+01    1.572630e+03
  1.979479e+01    1.578221e+03
  1.984791e+01    1.576120e+03
  1.990103e+01    1.573453e+03
  1.995414e+01    1.571691e+03
  2.000726e+01    1.569459e+03
  2.006038e+01    1.564151e+03
  2.011350e+01    1.561411e+03
  2.016662e+01    1.555362e+03
  2.021974e+01    1.559764e+03
  2.027285e+01    1.565708e+03
  2.032597e+01    1.548972e+03
  2.037909e+01    1.545893e+03
  2.043221e+01    1.540449e+03
  2.048533e+01    1.538144e+03
  2.053844e+01    1.538189e+03
  2.059156e+01    1.532519e+03
  2.064468e+01    1.529502e+03
  2.069780e+01    1.508796e+03
  2.075092e+01    1.483390e+03
  2.080404e+01    1.467591e+03
  2.085715e+01    1.488444e+03
  2.091027e+01    1.516855e+03
  2.096339e+01    1.523954e+03
  2.101651e+01    1.530040e+03
  2.106963e+01    1.534245e+03
  2.112274e+01    1.537916e+03
  2.117586e+01    1.538701e+03
  2.122898e+01    1.541499e+03
  2.128210e+01    1.539288e+03
  2.133522e+01    1.539124e+03
  2.138834e+01    1.537247e+03
  2.144145e+01    1.535990e+03
  2.149457e+01    1.538447e+03
  2.154769e+01    1.534918e+03
  2.160081e+01    1.534672e+03
  2.165393e+01    1.537534e+03
  2.170704e+01    1.537407e+03
  2.176016e+01    1.526336e+03
  2.181328e+01    1.534393e+03
  2.186640e+01    1.535507e+03
  2.191952e+01    1.535597e+03
  2.197263e+01    1.531835e+03
  2.202575e+01    1.529497e+03
  2.207887e+01    1.528691e+03
  2.213199e+01    1.526910e+03
  2.218511e+01    1.524280e+03
  2.223823e+01    1.523666e+03
  2.229134e+01    1.522429e+03
  2.234446e+01    1.521366e+03
  2.239758e+01    1.521204e+03
  2.245070e+01    1.520334e+03
  2.250382e+01    1.520583e+03
  2.255693e+01    1.516375e+03
  2.261005e+01    1.498308e+03
  2.266317e+01    1.485212e+03
  2.271629e+01    1.475979e+03
  2.276941e+01    1.466977e+03
  2.282253e+01    1.458272e+03
  2.287564e+01    1.453583e+03
  2.292876e+01    1.448214e+03
  2.298188e+01    1.445379e+03
  2.303500e+01    1.443243e+03
  2.308812e+01    1.440597e+03
  2.314123e+01    1.437758e+03
  2.319435e+01    1.435671e+03
  2.324747e+01    1.426075e+03
  2.330059e+01    1.424723e+03
  2.335371e+01    1.421726e+03
  2.340683e+01    1.415767e+03
  2.345994e+01    1.415173e+03
  2.351306e+01    1.411475e+03
  2.356618e+01    1.407062e+03
  2.361930e+01    1.401787e+03
  2.367242e+01    1.395472e+03
  2.372553e+01    1.388888e+03
  2.377865e+01    1.384436e+03
  2.383177e+01    1.377749e+03
  2.388489e+01    1.374838e+03
  2.393801e+01    1.371052e+03
  2.399113e+01    1.369546e+03
  2.404424e+01    1.367059e+03
  2.409736e+01    1.365672e+03
  2.415048e+01    1.360234e+03
  2.420360e+01    1.358129e+03
  2.425672e+01    1.353429e+03
  2.430983e+01    1.349579e+03
  2.436295e+01    1.349245e+03
  2.441607e+01    1.345757e+03
  2.446919e+01    1.343618e+03
  2.452231e+01    1.340289e+03
  2.457542e+01    1.341050e+03
  2.462854e+01    1.334389e+03
  2.468166e+01    1.335629e+03
  2.473478e+01    1.331152e+03
  2.478790e+01    1.324274e+03
  2.484102e+01    1.322265e+03
  2.489413e+01    1.316706e+03
  2.494725e+01    1.312796e+03
  2.500037e+01    1.307770e+03
  2.505349e+01    1.300640e+03
  2.510661e+01    1.296223e+03
  2.515972e+01    1.296719e+03
  2.521284e+01    1.293871e+03
  2.526596e+01    1.291086e+03
  2.531908e+01    1.288846e+03
  2.537220e+01    1.285590e+03
  2.542532e+01    1.279148e+03
  2.547843e+01    1.278463e+03
  2.553155e+01    1.273919e+03
  2.558467e+01    1.268060e+03
  2.563779e+01    1.258180e+03
  2.569091e+01    1.255377e+03
  2.574402e+01    1.242066e+03
  2.579714e+01    1.239210e+03
  2.585026e+01    1.227877e+03
  2.590338e+01    1.218649e+03
  2.595650e+01    1.219373e+03
  2.600962e+01    1.215749e+03
  2.606273e+01    1.217443e+03
  2.611585e+01    1.218350e+03
  2.616897e+01    1.216058e+03
  2.622209e+01    1.214536e+03
  2.627521e+01    1.207889e+03
  2.632832e+01    1.203431e+03
  2.638144e+01    1.204850e+03
  2.643456e+01    1.193177e+03
  2.648768e+01    1.182710e+03
  2.654080e+01    1.163182e+03
