# == pyFAI calibration ==
# Distance Sample to Detector: 0.2946421923531691 m
# PONI: 2.875e-01, 2.439e-01 m
# Rotations: -0.010990 -0.009181 0.000003 rad
# 
# == Fit2d calibration ==
# Distance Sample-beamCenter: 294.672 mm
# Center: x=1436.809, y=1655.851 pix
# Tilt: 0.820 deg  TiltPlanRot: -39.874 deg
# 
# Detector Pilatus 2M	 PixelSize= 1.720e-04, 1.720e-04 m
#    Detector has a mask: True 
#    Detector has a dark current: False 
#    detector has a flat field: False 
# 
# Wavelength: 2.0732883349524408e-11 m
# Mask applied: from detector
# Dark current applied: False
# Flat field applied: False
# Polarization factor: None
# Normalization factor: 1.0
# --> /gpfs/current/raw/FMue_3/FMue_3_20231024_175355_00015.dat
#        q_A^-1             I 
  3.483473e-02             nan
  8.795289e-02             nan
  1.410711e-01             nan
  1.941892e-01             nan
  2.473074e-01             nan
  3.004255e-01             nan
  3.535437e-01             nan
  4.066619e-01    9.477361e+03
  4.597800e-01    9.073270e+03
  5.128982e-01    8.151564e+03
  5.660163e-01    7.822394e+03
  6.191345e-01    7.856414e+03
  6.722527e-01    7.997500e+03
  7.253708e-01    8.358063e+03
  7.784890e-01    1.371070e+04
  8.316071e-01    2.722007e+04
  8.847253e-01    1.637080e+04
  9.378435e-01    9.354479e+03
  9.909616e-01    9.947812e+03
  1.044080e+00    1.013445e+04
  1.097198e+00    9.920595e+03
  1.150316e+00    1.031703e+04
  1.203434e+00    1.100039e+04
  1.256552e+00    1.203914e+04
  1.309671e+00    1.297397e+04
  1.362789e+00    1.384220e+04
  1.415907e+00    1.452773e+04
  1.469025e+00    1.475529e+04
  1.522143e+00    1.469512e+04
  1.575261e+00    1.424151e+04
  1.628380e+00    1.634049e+04
  1.681498e+00    1.798910e+04
  1.734616e+00    1.256989e+04
  1.787734e+00    1.058326e+04
  1.840852e+00    9.825837e+03
  1.893970e+00    9.293808e+03
  1.947089e+00    9.207670e+03
  2.000207e+00    8.839929e+03
  2.053325e+00    8.119863e+03
  2.106443e+00    7.876503e+03
  2.159561e+00    8.006858e+03
  2.212679e+00    8.175883e+03
  2.265797e+00    8.399415e+03
  2.318916e+00    8.263889e+03
  2.372034e+00    8.847634e+03
  2.425152e+00    1.350520e+04
  2.478270e+00    9.499555e+03
  2.531388e+00    8.130390e+03
  2.584506e+00    8.939683e+03
  2.637625e+00    8.798105e+03
  2.690743e+00    9.204677e+03
  2.743861e+00    1.260826e+04
  2.796979e+00    8.256614e+03
  2.850097e+00    5.869835e+03
  2.903215e+00    5.445625e+03
  2.956334e+00    5.268020e+03
  3.009452e+00    5.381324e+03
  3.062570e+00    6.217997e+03
  3.115688e+00    7.862552e+03
  3.168806e+00    8.885080e+03
  3.221924e+00    1.073163e+04
  3.275043e+00    9.945351e+03
  3.328161e+00    6.260048e+03
  3.381279e+00    5.995633e+03
  3.434397e+00    5.374717e+03
  3.487515e+00    5.069434e+03
  3.540633e+00    5.001585e+03
  3.593751e+00    5.129726e+03
  3.646870e+00    6.300369e+03
  3.699988e+00    5.565894e+03
  3.753106e+00    4.955094e+03
  3.806224e+00    5.149216e+03
  3.859342e+00    5.925713e+03
  3.912460e+00    5.605584e+03
  3.965579e+00    5.167006e+03
  4.018697e+00    5.477396e+03
  4.071815e+00    7.426588e+03
  4.124933e+00    8.117714e+03
  4.178051e+00    8.741045e+03
  4.231169e+00    6.901716e+03
  4.284288e+00    6.463615e+03
  4.337406e+00    7.293394e+03
  4.390524e+00    7.868581e+03
  4.443642e+00    1.028176e+04
  4.496760e+00    1.199453e+04
  4.549878e+00    9.654209e+03
  4.602997e+00    6.254508e+03
  4.656115e+00    5.228465e+03
  4.709233e+00    5.353401e+03
  4.762351e+00    6.058134e+03
  4.815469e+00    5.750753e+03
  4.868587e+00    5.358885e+03
  4.921705e+00    5.800992e+03
  4.974824e+00    5.700428e+03
  5.027942e+00    5.896860e+03
  5.081060e+00    5.731561e+03
  5.134178e+00    5.250749e+03
  5.187296e+00    5.145539e+03
  5.240414e+00    5.346885e+03
  5.293533e+00    4.962545e+03
  5.346651e+00    4.538545e+03
  5.399769e+00    4.325422e+03
  5.452887e+00    4.448322e+03
  5.506005e+00    4.628364e+03
  5.559123e+00    4.114642e+03
  5.612242e+00    3.954171e+03
  5.665360e+00    3.870969e+03
  5.718478e+00    3.570969e+03
  5.771596e+00    3.586179e+03
  5.824714e+00    3.716591e+03
  5.877832e+00    3.673649e+03
  5.930951e+00    3.742254e+03
  5.984069e+00    3.876973e+03
  6.037187e+00    3.793727e+03
  6.090305e+00    3.791255e+03
  6.143423e+00    3.743830e+03
  6.196541e+00    3.729189e+03
  6.249660e+00    4.232546e+03
  6.302778e+00    4.373656e+03
  6.355896e+00    4.006611e+03
  6.409014e+00    4.174451e+03
  6.462132e+00    4.060107e+03
  6.515250e+00    3.893995e+03
  6.568368e+00    3.706317e+03
  6.621487e+00    3.728297e+03
  6.674605e+00    3.676184e+03
  6.727723e+00    3.468878e+03
  6.780841e+00    3.402417e+03
  6.833959e+00    3.483672e+03
  6.887077e+00    3.406452e+03
  6.940196e+00    3.389502e+03
  6.993314e+00    3.465379e+03
  7.046432e+00    3.453327e+03
  7.099550e+00    3.726174e+03
  7.152668e+00    3.777415e+03
  7.205786e+00    3.468585e+03
  7.258905e+00    3.374633e+03
  7.312023e+00    3.242547e+03
  7.365141e+00    3.168634e+03
  7.418259e+00    3.133274e+03
  7.471377e+00    3.144801e+03
  7.524495e+00    3.253381e+03
  7.577614e+00    3.271892e+03
  7.630732e+00    3.330919e+03
  7.683850e+00    3.531223e+03
  7.736968e+00    3.709854e+03
  7.790086e+00    3.771977e+03
  7.843204e+00    3.675136e+03
  7.896322e+00    3.313811e+03
  7.949441e+00    3.087415e+03
  8.002559e+00    3.018482e+03
  8.055677e+00    3.005574e+03
  8.108795e+00    3.030521e+03
  8.161913e+00    3.170228e+03
  8.215031e+00    3.330534e+03
  8.268150e+00    3.161945e+03
  8.321268e+00    3.028406e+03
  8.374386e+00    3.066727e+03
  8.427504e+00    3.012232e+03
  8.480622e+00    2.970264e+03
  8.533740e+00    3.022478e+03
  8.586859e+00    3.067731e+03
  8.639977e+00    3.053013e+03
  8.693095e+00    2.991206e+03
  8.746213e+00    2.959261e+03
  8.799331e+00    2.949974e+03
  8.852449e+00    2.905069e+03
  8.905568e+00    2.881827e+03
  8.958686e+00    2.943788e+03
  9.011804e+00    2.951643e+03
  9.064922e+00    2.896393e+03
  9.118040e+00    2.769663e+03
  9.171158e+00    2.760803e+03
  9.224276e+00    2.785934e+03
  9.277395e+00    2.740271e+03
  9.330513e+00    2.702917e+03
  9.383631e+00    2.699340e+03
  9.436749e+00    2.674146e+03
  9.489867e+00    2.694812e+03
  9.542985e+00    2.712154e+03
  9.596104e+00    2.714896e+03
  9.649222e+00    2.667975e+03
  9.702340e+00    2.638894e+03
  9.755458e+00    2.649458e+03
  9.808576e+00    2.607426e+03
  9.861694e+00    2.598379e+03
  9.914813e+00    2.607300e+03
  9.967931e+00    2.617720e+03
  1.002105e+01    2.602282e+03
  1.007417e+01    2.557831e+03
  1.012729e+01    2.499200e+03
  1.018040e+01    2.493759e+03
  1.023352e+01    2.493694e+03
  1.028664e+01    2.481803e+03
  1.033976e+01    2.500854e+03
  1.039288e+01    2.512683e+03
  1.044599e+01    2.481481e+03
  1.049911e+01    2.488874e+03
  1.055223e+01    2.485898e+03
  1.060535e+01    2.461973e+03
  1.065847e+01    2.446927e+03
  1.071158e+01    2.436355e+03
  1.076470e+01    2.425503e+03
  1.081782e+01    2.455055e+03
  1.087094e+01    2.473261e+03
  1.092406e+01    2.455284e+03
  1.097718e+01    2.439724e+03
  1.103029e+01    2.404339e+03
  1.108341e+01    2.386810e+03
  1.113653e+01    2.381484e+03
  1.118965e+01    2.362662e+03
  1.124277e+01    2.354032e+03
  1.129588e+01    2.349675e+03
  1.134900e+01    2.348078e+03
  1.140212e+01    2.325732e+03
  1.145524e+01    2.298710e+03
  1.150836e+01    2.298347e+03
  1.156148e+01    2.304292e+03
  1.161459e+01    2.318484e+03
  1.166771e+01    2.302475e+03
  1.172083e+01    2.319198e+03
  1.177395e+01    2.307951e+03
  1.182707e+01    2.310788e+03
  1.188018e+01    2.325333e+03
  1.193330e+01    2.320923e+03
  1.198642e+01    2.301922e+03
  1.203954e+01    2.275313e+03
  1.209266e+01    2.259835e+03
  1.214578e+01    2.252263e+03
  1.219889e+01    2.253476e+03
  1.225201e+01    2.261475e+03
  1.230513e+01    2.278439e+03
  1.235825e+01    2.282178e+03
  1.241137e+01    2.260611e+03
  1.246448e+01    2.256255e+03
  1.251760e+01    2.263506e+03
  1.257072e+01    2.260539e+03
  1.262384e+01    2.256086e+03
  1.267696e+01    2.242391e+03
  1.273008e+01    2.232903e+03
  1.278319e+01    2.212209e+03
  1.283631e+01    2.193806e+03
  1.288943e+01    2.184660e+03
  1.294255e+01    2.173538e+03
  1.299567e+01    2.170778e+03
  1.304878e+01    2.159720e+03
  1.310190e+01    2.157135e+03
  1.315502e+01    2.158803e+03
  1.320814e+01    2.133417e+03
  1.326126e+01    2.100279e+03
  1.331437e+01    2.080882e+03
  1.336749e+01    2.067461e+03
  1.342061e+01    2.052022e+03
  1.347373e+01    2.076649e+03
  1.352685e+01    2.080741e+03
  1.357997e+01    2.076187e+03
  1.363308e+01    2.065585e+03
  1.368620e+01    2.054466e+03
  1.373932e+01    2.036689e+03
  1.379244e+01    2.025955e+03
  1.384556e+01    2.022006e+03
  1.389867e+01    2.017434e+03
  1.395179e+01    2.014706e+03
  1.400491e+01    2.012994e+03
  1.405803e+01    2.006961e+03
  1.411115e+01    1.996215e+03
  1.416427e+01    1.991400e+03
  1.421738e+01    1.991836e+03
  1.427050e+01    1.983966e+03
  1.432362e+01    1.987340e+03
  1.437674e+01    1.989656e+03
  1.442986e+01    1.978971e+03
  1.448297e+01    1.968861e+03
  1.453609e+01    1.960252e+03
  1.458921e+01    1.948372e+03
  1.464233e+01    1.943708e+03
  1.469545e+01    1.940963e+03
  1.474857e+01    1.924979e+03
  1.480168e+01    1.942392e+03
  1.485480e+01    1.937854e+03
  1.490792e+01    1.928138e+03
  1.496104e+01    1.919834e+03
  1.501416e+01    1.914218e+03
  1.506727e+01    1.909951e+03
  1.512039e+01    1.905161e+03
  1.517351e+01    1.918023e+03
  1.522663e+01    1.929471e+03
  1.527975e+01    1.926261e+03
  1.533286e+01    1.913327e+03
  1.538598e+01    1.900380e+03
  1.543910e+01    1.889081e+03
  1.549222e+01    1.888924e+03
  1.554534e+01    1.889402e+03
  1.559846e+01    1.889956e+03
  1.565157e+01    1.880958e+03
  1.570469e+01    1.873989e+03
  1.575781e+01    1.867898e+03
  1.581093e+01    1.863420e+03
  1.586405e+01    1.862431e+03
  1.591716e+01    1.855150e+03
  1.597028e+01    1.848243e+03
  1.602340e+01    1.832117e+03
  1.607652e+01    1.819294e+03
  1.612964e+01    1.797039e+03
  1.618276e+01    1.783924e+03
  1.623587e+01    1.787651e+03
  1.628899e+01    1.804268e+03
  1.634211e+01    1.803880e+03
  1.639523e+01    1.799757e+03
  1.644835e+01    1.802955e+03
  1.650146e+01    1.799121e+03
  1.655458e+01    1.798240e+03
  1.660770e+01    1.794060e+03
  1.666082e+01    1.786432e+03
  1.671394e+01    1.784537e+03
  1.676706e+01    1.779725e+03
  1.682017e+01    1.794031e+03
  1.687329e+01    1.783180e+03
  1.692641e+01    1.775235e+03
  1.697953e+01    1.771297e+03
  1.703265e+01    1.768109e+03
  1.708576e+01    1.765858e+03
  1.713888e+01    1.758198e+03
  1.719200e+01    1.755898e+03
  1.724512e+01    1.747692e+03
  1.729824e+01    1.746676e+03
  1.735136e+01    1.742130e+03
  1.740447e+01    1.717567e+03
  1.745759e+01    1.724910e+03
  1.751071e+01    1.724615e+03
  1.756383e+01    1.735541e+03
  1.761695e+01    1.719663e+03
  1.767006e+01    1.715021e+03
  1.772318e+01    1.705521e+03
  1.777630e+01    1.706232e+03
  1.782942e+01    1.698211e+03
  1.788254e+01    1.693091e+03
  1.793565e+01    1.692293e+03
  1.798877e+01    1.689086e+03
  1.804189e+01    1.681575e+03
  1.809501e+01    1.676845e+03
  1.814813e+01    1.674127e+03
  1.820125e+01    1.667922e+03
  1.825436e+01    1.673621e+03
  1.830748e+01    1.668542e+03
  1.836060e+01    1.663593e+03
  1.841372e+01    1.661475e+03
  1.846684e+01    1.657196e+03
  1.851995e+01    1.636439e+03
  1.857307e+01    1.620580e+03
  1.862619e+01    1.609817e+03
  1.867931e+01    1.606520e+03
  1.873243e+01    1.628749e+03
  1.878555e+01    1.630392e+03
  1.883866e+01    1.629835e+03
  1.889178e+01    1.628803e+03
  1.894490e+01    1.639881e+03
  1.899802e+01    1.629754e+03
  1.905114e+01    1.624368e+03
  1.910425e+01    1.619517e+03
  1.915737e+01    1.613312e+03
  1.921049e+01    1.609068e+03
  1.926361e+01    1.607590e+03
  1.931673e+01    1.603063e+03
  1.936985e+01    1.600948e+03
  1.942296e+01    1.598936e+03
  1.947608e+01    1.597050e+03
  1.952920e+01    1.593471e+03
  1.958232e+01    1.593927e+03
  1.963544e+01    1.599985e+03
  1.968855e+01    1.583243e+03
  1.974167e+01    1.572349e+03
  1.979479e+01    1.576951e+03
  1.984791e+01    1.575219e+03
  1.990103e+01    1.573219e+03
  1.995414e+01    1.570996e+03
  2.000726e+01    1.568679e+03
  2.006038e+01    1.564432e+03
  2.011350e+01    1.559786e+03
  2.016662e+01    1.553363e+03
  2.021974e+01    1.558029e+03
  2.027285e+01    1.565249e+03
  2.032597e+01    1.547548e+03
  2.037909e+01    1.543390e+03
  2.043221e+01    1.539920e+03
  2.048533e+01    1.537447e+03
  2.053844e+01    1.537510e+03
  2.059156e+01    1.531310e+03
  2.064468e+01    1.527816e+03
  2.069780e+01    1.507912e+03
  2.075092e+01    1.483524e+03
  2.080404e+01    1.467642e+03
  2.085715e+01    1.486117e+03
  2.091027e+01    1.515412e+03
  2.096339e+01    1.522224e+03
  2.101651e+01    1.527341e+03
  2.106963e+01    1.531169e+03
  2.112274e+01    1.536245e+03
  2.117586e+01    1.536571e+03
  2.122898e+01    1.539894e+03
  2.128210e+01    1.536767e+03
  2.133522e+01    1.537118e+03
  2.138834e+01    1.536326e+03
  2.144145e+01    1.536008e+03
  2.149457e+01    1.535866e+03
  2.154769e+01    1.535015e+03
  2.160081e+01    1.533617e+03
  2.165393e+01    1.535039e+03
  2.170704e+01    1.536267e+03
  2.176016e+01    1.523949e+03
  2.181328e+01    1.533309e+03
  2.186640e+01    1.533258e+03
  2.191952e+01    1.532457e+03
  2.197263e+01    1.530399e+03
  2.202575e+01    1.528458e+03
  2.207887e+01    1.527651e+03
  2.213199e+01    1.525347e+03
  2.218511e+01    1.524323e+03
  2.223823e+01    1.523095e+03
  2.229134e+01    1.520851e+03
  2.234446e+01    1.520621e+03
  2.239758e+01    1.520570e+03
  2.245070e+01    1.516394e+03
  2.250382e+01    1.519112e+03
  2.255693e+01    1.515478e+03
  2.261005e+01    1.495481e+03
  2.266317e+01    1.483415e+03
  2.271629e+01    1.474532e+03
  2.276941e+01    1.465821e+03
  2.282253e+01    1.456395e+03
  2.287564e+01    1.453439e+03
  2.292876e+01    1.447008e+03
  2.298188e+01    1.444751e+03
  2.303500e+01    1.441754e+03
  2.308812e+01    1.440593e+03
  2.314123e+01    1.436758e+03
  2.319435e+01    1.432112e+03
  2.324747e+01    1.424695e+03
  2.330059e+01    1.422277e+03
  2.335371e+01    1.418655e+03
  2.340683e+01    1.415303e+03
  2.345994e+01    1.411670e+03
  2.351306e+01    1.408306e+03
  2.356618e+01    1.403992e+03
  2.361930e+01    1.397906e+03
  2.367242e+01    1.392189e+03
  2.372553e+01    1.386514e+03
  2.377865e+01    1.383493e+03
  2.383177e+01    1.376734e+03
  2.388489e+01    1.373328e+03
  2.393801e+01    1.368403e+03
  2.399113e+01    1.366679e+03
  2.404424e+01    1.365392e+03
  2.409736e+01    1.364740e+03
  2.415048e+01    1.359267e+03
  2.420360e+01    1.355559e+03
  2.425672e+01    1.350889e+03
  2.430983e+01    1.347686e+03
  2.436295e+01    1.346470e+03
  2.441607e+01    1.345206e+03
  2.446919e+01    1.341711e+03
  2.452231e+01    1.341445e+03
  2.457542e+01    1.337524e+03
  2.462854e+01    1.333947e+03
  2.468166e+01    1.333792e+03
  2.473478e+01    1.328158e+03
  2.478790e+01    1.322886e+03
  2.484102e+01    1.320797e+03
  2.489413e+01    1.314826e+03
  2.494725e+01    1.311644e+03
  2.500037e+01    1.307673e+03
  2.505349e+01    1.300080e+03
  2.510661e+01    1.294677e+03
  2.515972e+01    1.293110e+03
  2.521284e+01    1.291557e+03
  2.526596e+01    1.291357e+03
  2.531908e+01    1.284891e+03
  2.537220e+01    1.280661e+03
  2.542532e+01    1.279821e+03
  2.547843e+01    1.277234e+03
  2.553155e+01    1.273296e+03
  2.558467e+01    1.266063e+03
  2.563779e+01    1.257509e+03
  2.569091e+01    1.255027e+03
  2.574402e+01    1.242271e+03
  2.579714e+01    1.233970e+03
  2.585026e+01    1.226438e+03
  2.590338e+01    1.220614e+03
  2.595650e+01    1.219238e+03
  2.600962e+01    1.216315e+03
  2.606273e+01    1.220654e+03
  2.611585e+01    1.213802e+03
  2.616897e+01    1.215318e+03
  2.622209e+01    1.216140e+03
  2.627521e+01    1.208745e+03
  2.632832e+01    1.196083e+03
  2.638144e+01    1.202605e+03
  2.643456e+01    1.197051e+03
  2.648768e+01    1.167606e+03
  2.654080e+01    1.181793e+03
