# == pyFAI calibration ==
# Distance Sample to Detector: 0.2946421923531691 m
# PONI: 2.875e-01, 2.439e-01 m
# Rotations: -0.010990 -0.009181 0.000003 rad
# 
# == Fit2d calibration ==
# Distance Sample-beamCenter: 294.672 mm
# Center: x=1436.809, y=1655.851 pix
# Tilt: 0.820 deg  TiltPlanRot: -39.874 deg
# 
# Detector Pilatus 2M	 PixelSize= 1.720e-04, 1.720e-04 m
#    Detector has a mask: True 
#    Detector has a dark current: False 
#    detector has a flat field: False 
# 
# Wavelength: 2.0732883349524408e-11 m
# Mask applied: from detector
# Dark current applied: False
# Flat field applied: False
# Polarization factor: None
# Normalization factor: 1.0
# --> /gpfs/current/raw/FMue_3/FMue_3_20231024_175355_00101.dat
#        q_A^-1             I 
  3.483473e-02             nan
  8.795289e-02             nan
  1.410711e-01             nan
  1.941892e-01             nan
  2.473074e-01             nan
  3.004255e-01             nan
  3.535437e-01             nan
  4.066619e-01    1.350514e+04
  4.597800e-01    1.230899e+04
  5.128982e-01    1.037010e+04
  5.660163e-01    9.278019e+03
  6.191345e-01    8.804185e+03
  6.722527e-01    8.564759e+03
  7.253708e-01    8.512685e+03
  7.784890e-01    8.524021e+03
  8.316071e-01    8.661240e+03
  8.847253e-01    8.827089e+03
  9.378435e-01    9.269115e+03
  9.909616e-01    9.978212e+03
  1.044080e+00    1.011601e+04
  1.097198e+00    9.927529e+03
  1.150316e+00    1.038239e+04
  1.203434e+00    1.133200e+04
  1.256552e+00    1.216957e+04
  1.309671e+00    1.299103e+04
  1.362789e+00    1.404986e+04
  1.415907e+00    1.458243e+04
  1.469025e+00    1.467308e+04
  1.522143e+00    1.451001e+04
  1.575261e+00    1.388105e+04
  1.628380e+00    1.312593e+04
  1.681498e+00    1.219146e+04
  1.734616e+00    1.122737e+04
  1.787734e+00    1.039716e+04
  1.840852e+00    9.705286e+03
  1.893970e+00    9.209658e+03
  1.947089e+00    9.144482e+03
  2.000207e+00    8.870241e+03
  2.053325e+00    8.358534e+03
  2.106443e+00    8.419603e+03
  2.159561e+00    8.846631e+03
  2.212679e+00    9.115181e+03
  2.265797e+00    9.208077e+03
  2.318916e+00    8.801397e+03
  2.372034e+00    8.133455e+03
  2.425152e+00    8.340752e+03
  2.478270e+00    9.291530e+03
  2.531388e+00    1.102699e+04
  2.584506e+00    1.199685e+04
  2.637625e+00    1.094020e+04
  2.690743e+00    9.379857e+03
  2.743861e+00    8.222705e+03
  2.796979e+00    6.777243e+03
  2.850097e+00    5.761669e+03
  2.903215e+00    5.419042e+03
  2.956334e+00    5.349114e+03
  3.009452e+00    5.640676e+03
  3.062570e+00    6.783448e+03
  3.115688e+00    9.107041e+03
  3.168806e+00    9.469922e+03
  3.221924e+00    7.744114e+03
  3.275043e+00    6.158439e+03
  3.328161e+00    5.480641e+03
  3.381279e+00    5.529273e+03
  3.434397e+00    5.233229e+03
  3.487515e+00    4.984766e+03
  3.540633e+00    4.903465e+03
  3.593751e+00    4.756091e+03
  3.646870e+00    4.760455e+03
  3.699988e+00    4.903517e+03
  3.753106e+00    5.133380e+03
  3.806224e+00    5.286780e+03
  3.859342e+00    5.415970e+03
  3.912460e+00    5.647076e+03
  3.965579e+00    6.073314e+03
  4.018697e+00    6.637047e+03
  4.071815e+00    7.057030e+03
  4.124933e+00    6.959280e+03
  4.178051e+00    6.622737e+03
  4.231169e+00    6.447619e+03
  4.284288e+00    6.767025e+03
  4.337406e+00    7.866569e+03
  4.390524e+00    9.409497e+03
  4.443642e+00    1.172375e+04
  4.496760e+00    1.287543e+04
  4.549878e+00    9.259773e+03
  4.602997e+00    6.162121e+03
  4.656115e+00    5.416108e+03
  4.709233e+00    5.263923e+03
  4.762351e+00    5.353446e+03
  4.815469e+00    5.312993e+03
  4.868587e+00    5.221603e+03
  4.921705e+00    5.248295e+03
  4.974824e+00    5.339166e+03
  5.027942e+00    5.400066e+03
  5.081060e+00    5.490014e+03
  5.134178e+00    5.424990e+03
  5.187296e+00    5.204517e+03
  5.240414e+00    4.891946e+03
  5.293533e+00    4.666194e+03
  5.346651e+00    4.528245e+03
  5.399769e+00    4.429175e+03
  5.452887e+00    4.413602e+03
  5.506005e+00    4.372252e+03
  5.559123e+00    4.017608e+03
  5.612242e+00    3.749503e+03
  5.665360e+00    3.662760e+03
  5.718478e+00    3.586760e+03
  5.771596e+00    3.562923e+03
  5.824714e+00    3.618526e+03
  5.877832e+00    3.739867e+03
  5.930951e+00    3.904488e+03
  5.984069e+00    4.026254e+03
  6.037187e+00    4.016320e+03
  6.090305e+00    3.905658e+03
  6.143423e+00    3.793631e+03
  6.196541e+00    3.849460e+03
  6.249660e+00    4.028225e+03
  6.302778e+00    3.999522e+03
  6.355896e+00    3.729650e+03
  6.409014e+00    3.593814e+03
  6.462132e+00    3.517935e+03
  6.515250e+00    3.451170e+03
  6.568368e+00    3.463793e+03
  6.621487e+00    3.495248e+03
  6.674605e+00    3.535383e+03
  6.727723e+00    3.607466e+03
  6.780841e+00    3.590604e+03
  6.833959e+00    3.493853e+03
  6.887077e+00    3.393240e+03
  6.940196e+00    3.326253e+03
  6.993314e+00    3.354426e+03
  7.046432e+00    3.368638e+03
  7.099550e+00    3.285135e+03
  7.152668e+00    3.204451e+03
  7.205786e+00    3.154189e+03
  7.258905e+00    3.114815e+03
  7.312023e+00    3.138403e+03
  7.365141e+00    3.181950e+03
  7.418259e+00    3.238895e+03
  7.471377e+00    3.288742e+03
  7.524495e+00    3.351225e+03
  7.577614e+00    3.436688e+03
  7.630732e+00    3.500217e+03
  7.683850e+00    3.612622e+03
  7.736968e+00    3.746294e+03
  7.790086e+00    3.677049e+03
  7.843204e+00    3.447514e+03
  7.896322e+00    3.250594e+03
  7.949441e+00    3.161331e+03
  8.002559e+00    3.138727e+03
  8.055677e+00    3.140399e+03
  8.108795e+00    3.129810e+03
  8.161913e+00    3.103579e+03
  8.215031e+00    3.045733e+03
  8.268150e+00    2.981912e+03
  8.321268e+00    2.936573e+03
  8.374386e+00    2.912030e+03
  8.427504e+00    2.895910e+03
  8.480622e+00    2.870498e+03
  8.533740e+00    2.815708e+03
  8.586859e+00    2.844508e+03
  8.639977e+00    2.844867e+03
  8.693095e+00    2.839708e+03
  8.746213e+00    2.840866e+03
  8.799331e+00    2.830599e+03
  8.852449e+00    2.822666e+03
  8.905568e+00    2.838257e+03
  8.958686e+00    2.846194e+03
  9.011804e+00    2.845249e+03
  9.064922e+00    2.781474e+03
  9.118040e+00    2.721156e+03
  9.171158e+00    2.698710e+03
  9.224276e+00    2.683178e+03
  9.277395e+00    2.650269e+03
  9.330513e+00    2.631173e+03
  9.383631e+00    2.615752e+03
  9.436749e+00    2.603062e+03
  9.489867e+00    2.603689e+03
  9.542985e+00    2.598899e+03
  9.596104e+00    2.581542e+03
  9.649222e+00    2.581057e+03
  9.702340e+00    2.579360e+03
  9.755458e+00    2.574418e+03
  9.808576e+00    2.568359e+03
  9.861694e+00    2.572180e+03
  9.914813e+00    2.575798e+03
  9.967931e+00    2.559016e+03
  1.002105e+01    2.514690e+03
  1.007417e+01    2.472546e+03
  1.012729e+01    2.447359e+03
  1.018040e+01    2.447051e+03
  1.023352e+01    2.429868e+03
  1.028664e+01    2.400098e+03
  1.033976e+01    2.379100e+03
  1.039288e+01    2.394322e+03
  1.044599e+01    2.380628e+03
  1.049911e+01    2.377130e+03
  1.055223e+01    2.359493e+03
  1.060535e+01    2.359754e+03
  1.065847e+01    2.351896e+03
  1.071158e+01    2.347208e+03
  1.076470e+01    2.338454e+03
  1.081782e+01    2.335536e+03
  1.087094e+01    2.321645e+03
  1.092406e+01    2.328087e+03
  1.097718e+01    2.331720e+03
  1.103029e+01    2.330589e+03
  1.108341e+01    2.327771e+03
  1.113653e+01    2.317669e+03
  1.118965e+01    2.309924e+03
  1.124277e+01    2.288672e+03
  1.129588e+01    2.280243e+03
  1.134900e+01    2.269563e+03
  1.140212e+01    2.270136e+03
  1.145524e+01    2.264793e+03
  1.150836e+01    2.272138e+03
  1.156148e+01    2.267717e+03
  1.161459e+01    2.274055e+03
  1.166771e+01    2.266931e+03
  1.172083e+01    2.276896e+03
  1.177395e+01    2.260250e+03
  1.182707e+01    2.247989e+03
  1.188018e+01    2.247649e+03
  1.193330e+01    2.230674e+03
  1.198642e+01    2.213325e+03
  1.203954e+01    2.190691e+03
  1.209266e+01    2.180954e+03
  1.214578e+01    2.171400e+03
  1.219889e+01    2.173585e+03
  1.225201e+01    2.173408e+03
  1.230513e+01    2.169012e+03
  1.235825e+01    2.172790e+03
  1.241137e+01    2.157681e+03
  1.246448e+01    2.156151e+03
  1.251760e+01    2.151847e+03
  1.257072e+01    2.144234e+03
  1.262384e+01    2.148713e+03
  1.267696e+01    2.135358e+03
  1.273008e+01    2.119860e+03
  1.278319e+01    2.112072e+03
  1.283631e+01    2.102813e+03
  1.288943e+01    2.097943e+03
  1.294255e+01    2.085371e+03
  1.299567e+01    2.081005e+03
  1.304878e+01    2.072252e+03
  1.310190e+01    2.071528e+03
  1.315502e+01    2.067916e+03
  1.320814e+01    2.045001e+03
  1.326126e+01    2.020720e+03
  1.331437e+01    2.010446e+03
  1.336749e+01    2.004454e+03
  1.342061e+01    1.991694e+03
  1.347373e+01    2.017694e+03
  1.352685e+01    2.022807e+03
  1.357997e+01    2.009593e+03
  1.363308e+01    1.997730e+03
  1.368620e+01    1.986948e+03
  1.373932e+01    1.977481e+03
  1.379244e+01    1.971239e+03
  1.384556e+01    1.965792e+03
  1.389867e+01    1.956816e+03
  1.395179e+01    1.948647e+03
  1.400491e+01    1.947497e+03
  1.405803e+01    1.941059e+03
  1.411115e+01    1.934170e+03
  1.416427e+01    1.925213e+03
  1.421738e+01    1.922042e+03
  1.427050e+01    1.914060e+03
  1.432362e+01    1.914995e+03
  1.437674e+01    1.910238e+03
  1.442986e+01    1.897002e+03
  1.448297e+01    1.890884e+03
  1.453609e+01    1.884147e+03
  1.458921e+01    1.875007e+03
  1.464233e+01    1.869247e+03
  1.469545e+01    1.863250e+03
  1.474857e+01    1.844635e+03
  1.480168e+01    1.855955e+03
  1.485480e+01    1.850973e+03
  1.490792e+01    1.846451e+03
  1.496104e+01    1.840270e+03
  1.501416e+01    1.837300e+03
  1.506727e+01    1.832101e+03
  1.512039e+01    1.827981e+03
  1.517351e+01    1.839100e+03
  1.522663e+01    1.855023e+03
  1.527975e+01    1.852498e+03
  1.533286e+01    1.837308e+03
  1.538598e+01    1.827767e+03
  1.543910e+01    1.820050e+03
  1.549222e+01    1.816888e+03
  1.554534e+01    1.814995e+03
  1.559846e+01    1.811753e+03
  1.565157e+01    1.806966e+03
  1.570469e+01    1.800397e+03
  1.575781e+01    1.797891e+03
  1.581093e+01    1.795267e+03
  1.586405e+01    1.792068e+03
  1.591716e+01    1.786953e+03
  1.597028e+01    1.780415e+03
  1.602340e+01    1.766387e+03
  1.607652e+01    1.753147e+03
  1.612964e+01    1.730000e+03
  1.618276e+01    1.717469e+03
  1.623587e+01    1.719288e+03
  1.628899e+01    1.735760e+03
  1.634211e+01    1.734397e+03
  1.639523e+01    1.726110e+03
  1.644835e+01    1.729323e+03
  1.650146e+01    1.723347e+03
  1.655458e+01    1.721051e+03
  1.660770e+01    1.716929e+03
  1.666082e+01    1.712719e+03
  1.671394e+01    1.712137e+03
  1.676706e+01    1.708531e+03
  1.682017e+01    1.721771e+03
  1.687329e+01    1.709703e+03
  1.692641e+01    1.703292e+03
  1.697953e+01    1.700171e+03
  1.703265e+01    1.695040e+03
  1.708576e+01    1.692969e+03
  1.713888e+01    1.684135e+03
  1.719200e+01    1.684679e+03
  1.724512e+01    1.676385e+03
  1.729824e+01    1.676232e+03
  1.735136e+01    1.671066e+03
  1.740447e+01    1.648597e+03
  1.745759e+01    1.655796e+03
  1.751071e+01    1.656372e+03
  1.756383e+01    1.667697e+03
  1.761695e+01    1.650298e+03
  1.767006e+01    1.648046e+03
  1.772318e+01    1.639812e+03
  1.777630e+01    1.638806e+03
  1.782942e+01    1.630822e+03
  1.788254e+01    1.625517e+03
  1.793565e+01    1.625041e+03
  1.798877e+01    1.620652e+03
  1.804189e+01    1.615139e+03
  1.809501e+01    1.610386e+03
  1.814813e+01    1.607509e+03
  1.820125e+01    1.601699e+03
  1.825436e+01    1.607260e+03
  1.830748e+01    1.600273e+03
  1.836060e+01    1.595918e+03
  1.841372e+01    1.592934e+03
  1.846684e+01    1.587429e+03
  1.851995e+01    1.568046e+03
  1.857307e+01    1.554150e+03
  1.862619e+01    1.544088e+03
  1.867931e+01    1.542001e+03
  1.873243e+01    1.559830e+03
  1.878555e+01    1.562294e+03
  1.883866e+01    1.560469e+03
  1.889178e+01    1.560680e+03
  1.894490e+01    1.571909e+03
  1.899802e+01    1.562005e+03
  1.905114e+01    1.557102e+03
  1.910425e+01    1.551731e+03
  1.915737e+01    1.547977e+03
  1.921049e+01    1.544862e+03
  1.926361e+01    1.540341e+03
  1.931673e+01    1.536662e+03
  1.936985e+01    1.534763e+03
  1.942296e+01    1.533208e+03
  1.947608e+01    1.532231e+03
  1.952920e+01    1.528823e+03
  1.958232e+01    1.529949e+03
  1.963544e+01    1.534396e+03
  1.968855e+01    1.519704e+03
  1.974167e+01    1.508624e+03
  1.979479e+01    1.513689e+03
  1.984791e+01    1.511881e+03
  1.990103e+01    1.509566e+03
  1.995414e+01    1.508456e+03
  2.000726e+01    1.504852e+03
  2.006038e+01    1.501350e+03
  2.011350e+01    1.497593e+03
  2.016662e+01    1.490744e+03
  2.021974e+01    1.495273e+03
  2.027285e+01    1.502000e+03
  2.032597e+01    1.484618e+03
  2.037909e+01    1.481375e+03
  2.043221e+01    1.475341e+03
  2.048533e+01    1.474262e+03
  2.053844e+01    1.473492e+03
  2.059156e+01    1.468162e+03
  2.064468e+01    1.466009e+03
  2.069780e+01    1.446121e+03
  2.075092e+01    1.420139e+03
  2.080404e+01    1.407178e+03
  2.085715e+01    1.427652e+03
  2.091027e+01    1.451965e+03
  2.096339e+01    1.459289e+03
  2.101651e+01    1.464865e+03
  2.106963e+01    1.469156e+03
  2.112274e+01    1.471594e+03
  2.117586e+01    1.472651e+03
  2.122898e+01    1.474859e+03
  2.128210e+01    1.474635e+03
  2.133522e+01    1.473940e+03
  2.138834e+01    1.471448e+03
  2.144145e+01    1.471084e+03
  2.149457e+01    1.472816e+03
  2.154769e+01    1.470682e+03
  2.160081e+01    1.469369e+03
  2.165393e+01    1.469443e+03
  2.170704e+01    1.470852e+03
  2.176016e+01    1.459210e+03
  2.181328e+01    1.469304e+03
  2.186640e+01    1.470125e+03
  2.191952e+01    1.469114e+03
  2.197263e+01    1.465538e+03
  2.202575e+01    1.464519e+03
  2.207887e+01    1.464058e+03
  2.213199e+01    1.461883e+03
  2.218511e+01    1.460687e+03
  2.223823e+01    1.460096e+03
  2.229134e+01    1.458282e+03
  2.234446e+01    1.457275e+03
  2.239758e+01    1.456969e+03
  2.245070e+01    1.455095e+03
  2.250382e+01    1.455571e+03
  2.255693e+01    1.452640e+03
  2.261005e+01    1.433827e+03
  2.266317e+01    1.422568e+03
  2.271629e+01    1.412122e+03
  2.276941e+01    1.403815e+03
  2.282253e+01    1.395970e+03
  2.287564e+01    1.392527e+03
  2.292876e+01    1.387086e+03
  2.298188e+01    1.383389e+03
  2.303500e+01    1.384013e+03
  2.308812e+01    1.378911e+03
  2.314123e+01    1.378210e+03
  2.319435e+01    1.372163e+03
  2.324747e+01    1.367348e+03
  2.330059e+01    1.361977e+03
  2.335371e+01    1.361073e+03
  2.340683e+01    1.356386e+03
  2.345994e+01    1.353246e+03
  2.351306e+01    1.350673e+03
  2.356618e+01    1.346180e+03
  2.361930e+01    1.340657e+03
  2.367242e+01    1.334935e+03
  2.372553e+01    1.327825e+03
  2.377865e+01    1.323854e+03
  2.383177e+01    1.317559e+03
  2.388489e+01    1.313580e+03
  2.393801e+01    1.309397e+03
  2.399113e+01    1.307963e+03
  2.404424e+01    1.307187e+03
  2.409736e+01    1.302719e+03
  2.415048e+01    1.300440e+03
  2.420360e+01    1.296750e+03
  2.425672e+01    1.294825e+03
  2.430983e+01    1.291147e+03
  2.436295e+01    1.290641e+03
  2.441607e+01    1.287472e+03
  2.446919e+01    1.285089e+03
  2.452231e+01    1.284658e+03
  2.457542e+01    1.284371e+03
  2.462854e+01    1.280101e+03
  2.468166e+01    1.278208e+03
  2.473478e+01    1.273813e+03
  2.478790e+01    1.266758e+03
  2.484102e+01    1.262451e+03
  2.489413e+01    1.258752e+03
  2.494725e+01    1.256635e+03
  2.500037e+01    1.249077e+03
  2.505349e+01    1.245768e+03
  2.510661e+01    1.241240e+03
  2.515972e+01    1.237254e+03
  2.521284e+01    1.237719e+03
  2.526596e+01    1.235798e+03
  2.531908e+01    1.230337e+03
  2.537220e+01    1.228642e+03
  2.542532e+01    1.225476e+03
  2.547843e+01    1.221155e+03
  2.553155e+01    1.216521e+03
  2.558467e+01    1.212747e+03
  2.563779e+01    1.203888e+03
  2.569091e+01    1.200847e+03
  2.574402e+01    1.189486e+03
  2.579714e+01    1.183135e+03
  2.585026e+01    1.176906e+03
  2.590338e+01    1.170492e+03
  2.595650e+01    1.167686e+03
  2.600962e+01    1.163363e+03
  2.606273e+01    1.166599e+03
  2.611585e+01    1.165590e+03
  2.616897e+01    1.167629e+03
  2.622209e+01    1.162190e+03
  2.627521e+01    1.157630e+03
  2.632832e+01    1.147744e+03
  2.638144e+01    1.153598e+03
  2.643456e+01    1.144075e+03
  2.648768e+01    1.127866e+03
  2.654080e+01    1.107152e+03
