# == pyFAI calibration ==
# Distance Sample to Detector: 0.2946421923531691 m
# PONI: 2.875e-01, 2.439e-01 m
# Rotations: -0.010990 -0.009181 0.000003 rad
# 
# == Fit2d calibration ==
# Distance Sample-beamCenter: 294.672 mm
# Center: x=1436.809, y=1655.851 pix
# Tilt: 0.820 deg  TiltPlanRot: -39.874 deg
# 
# Detector Pilatus 2M	 PixelSize= 1.720e-04, 1.720e-04 m
#    Detector has a mask: True 
#    Detector has a dark current: False 
#    detector has a flat field: False 
# 
# Wavelength: 2.0732883349524408e-11 m
# Mask applied: from detector
# Dark current applied: False
# Flat field applied: False
# Polarization factor: None
# Normalization factor: 1.0
# --> /gpfs/current/raw/FMue_3/FMue_3_20231024_175355_00074.dat
#        q_A^-1             I 
  3.483473e-02             nan
  8.795289e-02             nan
  1.410711e-01             nan
  1.941892e-01             nan
  2.473074e-01             nan
  3.004255e-01             nan
  3.535437e-01             nan
  4.066619e-01    1.450368e+04
  4.597800e-01    1.312923e+04
  5.128982e-01    1.110820e+04
  5.660163e-01    1.000231e+04
  6.191345e-01    9.511471e+03
  6.722527e-01    9.256638e+03
  7.253708e-01    9.197144e+03
  7.784890e-01    9.223503e+03
  8.316071e-01    9.406466e+03
  8.847253e-01    9.666012e+03
  9.378435e-01    1.012714e+04
  9.909616e-01    1.080473e+04
  1.044080e+00    1.079110e+04
  1.097198e+00    1.039144e+04
  1.150316e+00    1.066830e+04
  1.203434e+00    1.139199e+04
  1.256552e+00    1.234550e+04
  1.309671e+00    1.299096e+04
  1.362789e+00    1.394072e+04
  1.415907e+00    1.461069e+04
  1.469025e+00    1.486032e+04
  1.522143e+00    1.477539e+04
  1.575261e+00    1.419052e+04
  1.628380e+00    1.346367e+04
  1.681498e+00    1.254571e+04
  1.734616e+00    1.162264e+04
  1.787734e+00    1.081365e+04
  1.840852e+00    1.013626e+04
  1.893970e+00    9.622756e+03
  1.947089e+00    9.525314e+03
  2.000207e+00    9.151034e+03
  2.053325e+00    8.493484e+03
  2.106443e+00    8.349197e+03
  2.159561e+00    8.579403e+03
  2.212679e+00    8.820772e+03
  2.265797e+00    9.078357e+03
  2.318916e+00    8.940207e+03
  2.372034e+00    8.452323e+03
  2.425152e+00    8.637866e+03
  2.478270e+00    9.082760e+03
  2.531388e+00    9.960560e+03
  2.584506e+00    1.042614e+04
  2.637625e+00    9.960715e+03
  2.690743e+00    9.179501e+03
  2.743861e+00    8.475564e+03
  2.796979e+00    7.240870e+03
  2.850097e+00    6.268986e+03
  2.903215e+00    5.945298e+03
  2.956334e+00    5.850834e+03
  3.009452e+00    6.001415e+03
  3.062570e+00    6.749308e+03
  3.115688e+00    8.700788e+03
  3.168806e+00    9.308193e+03
  3.221924e+00    7.942933e+03
  3.275043e+00    6.495816e+03
  3.328161e+00    5.855470e+03
  3.381279e+00    5.950967e+03
  3.434397e+00    5.552841e+03
  3.487515e+00    5.290411e+03
  3.540633e+00    5.208220e+03
  3.593751e+00    5.028859e+03
  3.646870e+00    5.013673e+03
  3.699988e+00    5.101874e+03
  3.753106e+00    5.259876e+03
  3.806224e+00    5.359830e+03
  3.859342e+00    5.412199e+03
  3.912460e+00    5.531529e+03
  3.965579e+00    5.755375e+03
  4.018697e+00    6.175388e+03
  4.071815e+00    6.743124e+03
  4.124933e+00    7.032387e+03
  4.178051e+00    6.989125e+03
  4.231169e+00    6.860787e+03
  4.284288e+00    6.986905e+03
  4.337406e+00    7.566565e+03
  4.390524e+00    8.411931e+03
  4.443642e+00    1.065383e+04
  4.496760e+00    1.256551e+04
  4.549878e+00    9.464960e+03
  4.602997e+00    6.343990e+03
  4.656115e+00    5.592961e+03
  4.709233e+00    5.463783e+03
  4.762351e+00    5.587519e+03
  4.815469e+00    5.540277e+03
  4.868587e+00    5.394854e+03
  4.921705e+00    5.370069e+03
  4.974824e+00    5.409584e+03
  5.027942e+00    5.384262e+03
  5.081060e+00    5.385377e+03
  5.134178e+00    5.288297e+03
  5.187296e+00    5.134810e+03
  5.240414e+00    4.916729e+03
  5.293533e+00    4.757346e+03
  5.346651e+00    4.599288e+03
  5.399769e+00    4.463435e+03
  5.452887e+00    4.453760e+03
  5.506005e+00    4.471496e+03
  5.559123e+00    4.123069e+03
  5.612242e+00    3.838834e+03
  5.665360e+00    3.742427e+03
  5.718478e+00    3.640662e+03
  5.771596e+00    3.565294e+03
  5.824714e+00    3.564526e+03
  5.877832e+00    3.620572e+03
  5.930951e+00    3.728675e+03
  5.984069e+00    3.842927e+03
  6.037187e+00    3.902257e+03
  6.090305e+00    3.878350e+03
  6.143423e+00    3.799908e+03
  6.196541e+00    3.860748e+03
  6.249660e+00    4.057159e+03
  6.302778e+00    4.093409e+03
  6.355896e+00    3.867203e+03
  6.409014e+00    3.734412e+03
  6.462132e+00    3.650072e+03
  6.515250e+00    3.562747e+03
  6.568368e+00    3.538454e+03
  6.621487e+00    3.522859e+03
  6.674605e+00    3.507411e+03
  6.727723e+00    3.542389e+03
  6.780841e+00    3.531119e+03
  6.833959e+00    3.469320e+03
  6.887077e+00    3.410131e+03
  6.940196e+00    3.350839e+03
  6.993314e+00    3.385359e+03
  7.046432e+00    3.430688e+03
  7.099550e+00    3.370383e+03
  7.152668e+00    3.302039e+03
  7.205786e+00    3.250239e+03
  7.258905e+00    3.193052e+03
  7.312023e+00    3.180191e+03
  7.365141e+00    3.192875e+03
  7.418259e+00    3.224377e+03
  7.471377e+00    3.260075e+03
  7.524495e+00    3.311573e+03
  7.577614e+00    3.352073e+03
  7.630732e+00    3.377503e+03
  7.683850e+00    3.502013e+03
  7.736968e+00    3.701919e+03
  7.790086e+00    3.694940e+03
  7.843204e+00    3.469250e+03
  7.896322e+00    3.248445e+03
  7.949441e+00    3.122322e+03
  8.002559e+00    3.075988e+03
  8.055677e+00    3.073874e+03
  8.108795e+00    3.082231e+03
  8.161913e+00    3.097524e+03
  8.215031e+00    3.071245e+03
  8.268150e+00    3.025396e+03
  8.321268e+00    2.981539e+03
  8.374386e+00    2.964044e+03
  8.427504e+00    2.947496e+03
  8.480622e+00    2.923671e+03
  8.533740e+00    2.860213e+03
  8.586859e+00    2.884310e+03
  8.639977e+00    2.880250e+03
  8.693095e+00    2.873322e+03
  8.746213e+00    2.865445e+03
  8.799331e+00    2.845542e+03
  8.852449e+00    2.836847e+03
  8.905568e+00    2.856133e+03
  8.958686e+00    2.872771e+03
  9.011804e+00    2.877676e+03
  9.064922e+00    2.808591e+03
  9.118040e+00    2.727879e+03
  9.171158e+00    2.694095e+03
  9.224276e+00    2.676127e+03
  9.277395e+00    2.653486e+03
  9.330513e+00    2.640893e+03
  9.383631e+00    2.636395e+03
  9.436749e+00    2.626267e+03
  9.489867e+00    2.629845e+03
  9.542985e+00    2.622411e+03
  9.596104e+00    2.595317e+03
  9.649222e+00    2.579281e+03
  9.702340e+00    2.570777e+03
  9.755458e+00    2.567916e+03
  9.808576e+00    2.560153e+03
  9.861694e+00    2.568063e+03
  9.914813e+00    2.574841e+03
  9.967931e+00    2.566055e+03
  1.002105e+01    2.525332e+03
  1.007417e+01    2.474879e+03
  1.012729e+01    2.444037e+03
  1.018040e+01    2.445017e+03
  1.023352e+01    2.434683e+03
  1.028664e+01    2.413440e+03
  1.033976e+01    2.400502e+03
  1.039288e+01    2.418297e+03
  1.044599e+01    2.406170e+03
  1.049911e+01    2.404710e+03
  1.055223e+01    2.382326e+03
  1.060535e+01    2.379741e+03
  1.065847e+01    2.373702e+03
  1.071158e+01    2.366415e+03
  1.076470e+01    2.359062e+03
  1.081782e+01    2.354881e+03
  1.087094e+01    2.340903e+03
  1.092406e+01    2.347603e+03
  1.097718e+01    2.345934e+03
  1.103029e+01    2.342740e+03
  1.108341e+01    2.333877e+03
  1.113653e+01    2.322167e+03
  1.118965e+01    2.309351e+03
  1.124277e+01    2.299861e+03
  1.129588e+01    2.293376e+03
  1.134900e+01    2.283757e+03
  1.140212e+01    2.278101e+03
  1.145524e+01    2.267625e+03
  1.150836e+01    2.269574e+03
  1.156148e+01    2.260474e+03
  1.161459e+01    2.264218e+03
  1.166771e+01    2.259484e+03
  1.172083e+01    2.274387e+03
  1.177395e+01    2.261177e+03
  1.182707e+01    2.255511e+03
  1.188018e+01    2.260978e+03
  1.193330e+01    2.244538e+03
  1.198642e+01    2.226424e+03
  1.203954e+01    2.206894e+03
  1.209266e+01    2.196937e+03
  1.214578e+01    2.186538e+03
  1.219889e+01    2.186779e+03
  1.225201e+01    2.184123e+03
  1.230513e+01    2.180282e+03
  1.235825e+01    2.184486e+03
  1.241137e+01    2.173111e+03
  1.246448e+01    2.172870e+03
  1.251760e+01    2.173423e+03
  1.257072e+01    2.168256e+03
  1.262384e+01    2.171339e+03
  1.267696e+01    2.156970e+03
  1.273008e+01    2.141306e+03
  1.278319e+01    2.133547e+03
  1.283631e+01    2.123325e+03
  1.288943e+01    2.119095e+03
  1.294255e+01    2.106259e+03
  1.299567e+01    2.098927e+03
  1.304878e+01    2.091251e+03
  1.310190e+01    2.086480e+03
  1.315502e+01    2.080706e+03
  1.320814e+01    2.054469e+03
  1.326126e+01    2.028591e+03
  1.331437e+01    2.017810e+03
  1.336749e+01    2.006946e+03
  1.342061e+01    1.995578e+03
  1.347373e+01    2.021894e+03
  1.352685e+01    2.025644e+03
  1.357997e+01    2.015155e+03
  1.363308e+01    2.004229e+03
  1.368620e+01    1.994179e+03
  1.373932e+01    1.985583e+03
  1.379244e+01    1.979415e+03
  1.384556e+01    1.971932e+03
  1.389867e+01    1.966422e+03
  1.395179e+01    1.958556e+03
  1.400491e+01    1.955429e+03
  1.405803e+01    1.951490e+03
  1.411115e+01    1.943600e+03
  1.416427e+01    1.932406e+03
  1.421738e+01    1.930377e+03
  1.427050e+01    1.923090e+03
  1.432362e+01    1.924461e+03
  1.437674e+01    1.921325e+03
  1.442986e+01    1.908398e+03
  1.448297e+01    1.903040e+03
  1.453609e+01    1.895653e+03
  1.458921e+01    1.885666e+03
  1.464233e+01    1.881498e+03
  1.469545e+01    1.876426e+03
  1.474857e+01    1.855705e+03
  1.480168e+01    1.867066e+03
  1.485480e+01    1.864057e+03
  1.490792e+01    1.861652e+03
  1.496104e+01    1.851615e+03
  1.501416e+01    1.850726e+03
  1.506727e+01    1.846589e+03
  1.512039e+01    1.843346e+03
  1.517351e+01    1.854913e+03
  1.522663e+01    1.868363e+03
  1.527975e+01    1.864220e+03
  1.533286e+01    1.848211e+03
  1.538598e+01    1.837588e+03
  1.543910e+01    1.829226e+03
  1.549222e+01    1.825835e+03
  1.554534e+01    1.825907e+03
  1.559846e+01    1.824934e+03
  1.565157e+01    1.816468e+03
  1.570469e+01    1.811110e+03
  1.575781e+01    1.806967e+03
  1.581093e+01    1.803901e+03
  1.586405e+01    1.801301e+03
  1.591716e+01    1.795481e+03
  1.597028e+01    1.790820e+03
  1.602340e+01    1.774549e+03
  1.607652e+01    1.763743e+03
  1.612964e+01    1.740979e+03
  1.618276e+01    1.727418e+03
  1.623587e+01    1.731734e+03
  1.628899e+01    1.746496e+03
  1.634211e+01    1.746375e+03
  1.639523e+01    1.739005e+03
  1.644835e+01    1.740978e+03
  1.650146e+01    1.734177e+03
  1.655458e+01    1.731676e+03
  1.660770e+01    1.726510e+03
  1.666082e+01    1.722488e+03
  1.671394e+01    1.722145e+03
  1.676706e+01    1.719798e+03
  1.682017e+01    1.731780e+03
  1.687329e+01    1.721509e+03
  1.692641e+01    1.714714e+03
  1.697953e+01    1.708896e+03
  1.703265e+01    1.705506e+03
  1.708576e+01    1.703411e+03
  1.713888e+01    1.695246e+03
  1.719200e+01    1.694490e+03
  1.724512e+01    1.685030e+03
  1.729824e+01    1.687563e+03
  1.735136e+01    1.680524e+03
  1.740447e+01    1.658665e+03
  1.745759e+01    1.666431e+03
  1.751071e+01    1.668182e+03
  1.756383e+01    1.678021e+03
  1.761695e+01    1.662376e+03
  1.767006e+01    1.658746e+03
  1.772318e+01    1.650002e+03
  1.777630e+01    1.647987e+03
  1.782942e+01    1.638003e+03
  1.788254e+01    1.634503e+03
  1.793565e+01    1.632617e+03
  1.798877e+01    1.630394e+03
  1.804189e+01    1.624115e+03
  1.809501e+01    1.618888e+03
  1.814813e+01    1.616620e+03
  1.820125e+01    1.610951e+03
  1.825436e+01    1.616455e+03
  1.830748e+01    1.609873e+03
  1.836060e+01    1.606222e+03
  1.841372e+01    1.602877e+03
  1.846684e+01    1.599234e+03
  1.851995e+01    1.579164e+03
  1.857307e+01    1.564840e+03
  1.862619e+01    1.554070e+03
  1.867931e+01    1.549437e+03
  1.873243e+01    1.569523e+03
  1.878555e+01    1.572184e+03
  1.883866e+01    1.571445e+03
  1.889178e+01    1.569847e+03
  1.894490e+01    1.582496e+03
  1.899802e+01    1.572928e+03
  1.905114e+01    1.566666e+03
  1.910425e+01    1.560757e+03
  1.915737e+01    1.557721e+03
  1.921049e+01    1.554864e+03
  1.926361e+01    1.550078e+03
  1.931673e+01    1.546408e+03
  1.936985e+01    1.545064e+03
  1.942296e+01    1.541529e+03
  1.947608e+01    1.541669e+03
  1.952920e+01    1.538862e+03
  1.958232e+01    1.539555e+03
  1.963544e+01    1.545767e+03
  1.968855e+01    1.530151e+03
  1.974167e+01    1.517746e+03
  1.979479e+01    1.523896e+03
  1.984791e+01    1.520656e+03
  1.990103e+01    1.520370e+03
  1.995414e+01    1.518195e+03
  2.000726e+01    1.515241e+03
  2.006038e+01    1.510293e+03
  2.011350e+01    1.507184e+03
  2.016662e+01    1.500233e+03
  2.021974e+01    1.504284e+03
  2.027285e+01    1.511009e+03
  2.032597e+01    1.494568e+03
  2.037909e+01    1.490078e+03
  2.043221e+01    1.486181e+03
  2.048533e+01    1.484237e+03
  2.053844e+01    1.482574e+03
  2.059156e+01    1.477647e+03
  2.064468e+01    1.476496e+03
  2.069780e+01    1.463670e+03
  2.075092e+01    1.429816e+03
  2.080404e+01    1.415463e+03
  2.085715e+01    1.435504e+03
  2.091027e+01    1.462039e+03
  2.096339e+01    1.468324e+03
  2.101651e+01    1.473463e+03
  2.106963e+01    1.478190e+03
  2.112274e+01    1.481233e+03
  2.117586e+01    1.482089e+03
  2.122898e+01    1.484961e+03
  2.128210e+01    1.483138e+03
  2.133522e+01    1.482843e+03
  2.138834e+01    1.483460e+03
  2.144145e+01    1.480859e+03
  2.149457e+01    1.483385e+03
  2.154769e+01    1.481063e+03
  2.160081e+01    1.480135e+03
  2.165393e+01    1.479699e+03
  2.170704e+01    1.481502e+03
  2.176016e+01    1.470405e+03
  2.181328e+01    1.479494e+03
  2.186640e+01    1.479789e+03
  2.191952e+01    1.478288e+03
  2.197263e+01    1.475548e+03
  2.202575e+01    1.475156e+03
  2.207887e+01    1.473269e+03
  2.213199e+01    1.471714e+03
  2.218511e+01    1.470565e+03
  2.223823e+01    1.470979e+03
  2.229134e+01    1.467393e+03
  2.234446e+01    1.467728e+03
  2.239758e+01    1.466231e+03
  2.245070e+01    1.463765e+03
  2.250382e+01    1.465099e+03
  2.255693e+01    1.461572e+03
  2.261005e+01    1.444368e+03
  2.266317e+01    1.429533e+03
  2.271629e+01    1.423132e+03
  2.276941e+01    1.412897e+03
  2.282253e+01    1.405472e+03
  2.287564e+01    1.401552e+03
  2.292876e+01    1.396659e+03
  2.298188e+01    1.394422e+03
  2.303500e+01    1.391243e+03
  2.308812e+01    1.388734e+03
  2.314123e+01    1.387025e+03
  2.319435e+01    1.381430e+03
  2.324747e+01    1.375009e+03
  2.330059e+01    1.373585e+03
  2.335371e+01    1.371049e+03
  2.340683e+01    1.364540e+03
  2.345994e+01    1.363761e+03
  2.351306e+01    1.357785e+03
  2.356618e+01    1.354783e+03
  2.361930e+01    1.348574e+03
  2.367242e+01    1.344674e+03
  2.372553e+01    1.337189e+03
  2.377865e+01    1.333437e+03
  2.383177e+01    1.329864e+03
  2.388489e+01    1.322283e+03
  2.393801e+01    1.318848e+03
  2.399113e+01    1.317860e+03
  2.404424e+01    1.316467e+03
  2.409736e+01    1.314227e+03
  2.415048e+01    1.308568e+03
  2.420360e+01    1.305752e+03
  2.425672e+01    1.301772e+03
  2.430983e+01    1.301031e+03
  2.436295e+01    1.297802e+03
  2.441607e+01    1.295722e+03
  2.446919e+01    1.294638e+03
  2.452231e+01    1.293954e+03
  2.457542e+01    1.290038e+03
  2.462854e+01    1.287945e+03
  2.468166e+01    1.286654e+03
  2.473478e+01    1.281355e+03
  2.478790e+01    1.276073e+03
  2.484102e+01    1.273431e+03
  2.489413e+01    1.268117e+03
  2.494725e+01    1.262219e+03
  2.500037e+01    1.258982e+03
  2.505349e+01    1.253030e+03
  2.510661e+01    1.247883e+03
  2.515972e+01    1.244967e+03
  2.521284e+01    1.246668e+03
  2.526596e+01    1.241860e+03
  2.531908e+01    1.237867e+03
  2.537220e+01    1.236141e+03
  2.542532e+01    1.233978e+03
  2.547843e+01    1.229824e+03
  2.553155e+01    1.229585e+03
  2.558467e+01    1.219429e+03
  2.563779e+01    1.209558e+03
  2.569091e+01    1.206520e+03
  2.574402e+01    1.195347e+03
  2.579714e+01    1.191572e+03
  2.585026e+01    1.184448e+03
  2.590338e+01    1.178171e+03
  2.595650e+01    1.176051e+03
  2.600962e+01    1.174418e+03
  2.606273e+01    1.172368e+03
  2.611585e+01    1.171093e+03
  2.616897e+01    1.172216e+03
  2.622209e+01    1.171080e+03
  2.627521e+01    1.163058e+03
  2.632832e+01    1.158166e+03
  2.638144e+01    1.151604e+03
  2.643456e+01    1.149244e+03
  2.648768e+01    1.133599e+03
  2.654080e+01    1.104974e+03
