# == pyFAI calibration ==
# Distance Sample to Detector: 0.2946421923531691 m
# PONI: 2.875e-01, 2.439e-01 m
# Rotations: -0.010990 -0.009181 0.000003 rad
# 
# == Fit2d calibration ==
# Distance Sample-beamCenter: 294.672 mm
# Center: x=1436.809, y=1655.851 pix
# Tilt: 0.820 deg  TiltPlanRot: -39.874 deg
# 
# Detector Pilatus 2M	 PixelSize= 1.720e-04, 1.720e-04 m
#    Detector has a mask: True 
#    Detector has a dark current: False 
#    detector has a flat field: False 
# 
# Wavelength: 2.0732883349524408e-11 m
# Mask applied: from detector
# Dark current applied: False
# Flat field applied: False
# Polarization factor: None
# Normalization factor: 1.0
# --> /gpfs/current/raw/FMue_3/FMue_3_20231024_175355_00012.dat
#        q_A^-1             I 
  3.483473e-02             nan
  8.795289e-02             nan
  1.410711e-01             nan
  1.941892e-01             nan
  2.473074e-01             nan
  3.004255e-01             nan
  3.535437e-01             nan
  4.066619e-01    9.539544e+03
  4.597800e-01    9.120162e+03
  5.128982e-01    8.206056e+03
  5.660163e-01    7.874898e+03
  6.191345e-01    7.894330e+03
  6.722527e-01    8.042215e+03
  7.253708e-01    8.404281e+03
  7.784890e-01    1.366876e+04
  8.316071e-01    2.730850e+04
  8.847253e-01    1.655927e+04
  9.378435e-01    9.399180e+03
  9.909616e-01    9.971278e+03
  1.044080e+00    1.016551e+04
  1.097198e+00    9.956160e+03
  1.150316e+00    1.033688e+04
  1.203434e+00    1.104105e+04
  1.256552e+00    1.206203e+04
  1.309671e+00    1.299837e+04
  1.362789e+00    1.387806e+04
  1.415907e+00    1.457451e+04
  1.469025e+00    1.480658e+04
  1.522143e+00    1.472381e+04
  1.575261e+00    1.426879e+04
  1.628380e+00    1.633840e+04
  1.681498e+00    1.808304e+04
  1.734616e+00    1.264283e+04
  1.787734e+00    1.062055e+04
  1.840852e+00    9.858026e+03
  1.893970e+00    9.325374e+03
  1.947089e+00    9.227229e+03
  2.000207e+00    8.867057e+03
  2.053325e+00    8.146092e+03
  2.106443e+00    7.902682e+03
  2.159561e+00    8.016499e+03
  2.212679e+00    8.201269e+03
  2.265797e+00    8.417773e+03
  2.318916e+00    8.291025e+03
  2.372034e+00    8.847626e+03
  2.425152e+00    1.354552e+04
  2.478270e+00    9.571216e+03
  2.531388e+00    8.147383e+03
  2.584506e+00    8.952246e+03
  2.637625e+00    8.827119e+03
  2.690743e+00    9.201832e+03
  2.743861e+00    1.266146e+04
  2.796979e+00    8.330714e+03
  2.850097e+00    5.890311e+03
  2.903215e+00    5.460195e+03
  2.956334e+00    5.275970e+03
  3.009452e+00    5.390403e+03
  3.062570e+00    6.221478e+03
  3.115688e+00    7.876185e+03
  3.168806e+00    8.906676e+03
  3.221924e+00    1.072861e+04
  3.275043e+00    1.004184e+04
  3.328161e+00    6.299537e+03
  3.381279e+00    6.010714e+03
  3.434397e+00    5.385912e+03
  3.487515e+00    5.085404e+03
  3.540633e+00    5.014395e+03
  3.593751e+00    5.131968e+03
  3.646870e+00    6.310155e+03
  3.699988e+00    5.605278e+03
  3.753106e+00    4.969008e+03
  3.806224e+00    5.152938e+03
  3.859342e+00    5.933818e+03
  3.912460e+00    5.632865e+03
  3.965579e+00    5.176810e+03
  4.018697e+00    5.485397e+03
  4.071815e+00    7.422883e+03
  4.124933e+00    8.144894e+03
  4.178051e+00    8.769683e+03
  4.231169e+00    6.952032e+03
  4.284288e+00    6.465117e+03
  4.337406e+00    7.323313e+03
  4.390524e+00    7.886476e+03
  4.443642e+00    1.030203e+04
  4.496760e+00    1.203954e+04
  4.549878e+00    9.723759e+03
  4.602997e+00    6.292538e+03
  4.656115e+00    5.243051e+03
  4.709233e+00    5.353215e+03
  4.762351e+00    6.070372e+03
  4.815469e+00    5.770229e+03
  4.868587e+00    5.373500e+03
  4.921705e+00    5.811656e+03
  4.974824e+00    5.716920e+03
  5.027942e+00    5.908309e+03
  5.081060e+00    5.768323e+03
  5.134178e+00    5.268938e+03
  5.187296e+00    5.158094e+03
  5.240414e+00    5.361792e+03
  5.293533e+00    4.981198e+03
  5.346651e+00    4.551942e+03
  5.399769e+00    4.340746e+03
  5.452887e+00    4.457427e+03
  5.506005e+00    4.648296e+03
  5.559123e+00    4.130778e+03
  5.612242e+00    3.961367e+03
  5.665360e+00    3.885014e+03
  5.718478e+00    3.582798e+03
  5.771596e+00    3.592365e+03
  5.824714e+00    3.729784e+03
  5.877832e+00    3.685514e+03
  5.930951e+00    3.752113e+03
  5.984069e+00    3.892243e+03
  6.037187e+00    3.806253e+03
  6.090305e+00    3.802813e+03
  6.143423e+00    3.756399e+03
  6.196541e+00    3.740960e+03
  6.249660e+00    4.236347e+03
  6.302778e+00    4.391737e+03
  6.355896e+00    4.013895e+03
  6.409014e+00    4.186444e+03
  6.462132e+00    4.074901e+03
  6.515250e+00    3.912966e+03
  6.568368e+00    3.722100e+03
  6.621487e+00    3.731384e+03
  6.674605e+00    3.690918e+03
  6.727723e+00    3.484152e+03
  6.780841e+00    3.410525e+03
  6.833959e+00    3.493986e+03
  6.887077e+00    3.416052e+03
  6.940196e+00    3.395837e+03
  6.993314e+00    3.481729e+03
  7.046432e+00    3.460350e+03
  7.099550e+00    3.733226e+03
  7.152668e+00    3.797985e+03
  7.205786e+00    3.482063e+03
  7.258905e+00    3.386758e+03
  7.312023e+00    3.253024e+03
  7.365141e+00    3.177354e+03
  7.418259e+00    3.140096e+03
  7.471377e+00    3.152215e+03
  7.524495e+00    3.262063e+03
  7.577614e+00    3.285934e+03
  7.630732e+00    3.341359e+03
  7.683850e+00    3.538606e+03
  7.736968e+00    3.720865e+03
  7.790086e+00    3.785286e+03
  7.843204e+00    3.693048e+03
  7.896322e+00    3.328121e+03
  7.949441e+00    3.094915e+03
  8.002559e+00    3.026406e+03
  8.055677e+00    3.012488e+03
  8.108795e+00    3.039359e+03
  8.161913e+00    3.175542e+03
  8.215031e+00    3.342982e+03
  8.268150e+00    3.176250e+03
  8.321268e+00    3.039399e+03
  8.374386e+00    3.075257e+03
  8.427504e+00    3.023193e+03
  8.480622e+00    2.976769e+03
  8.533740e+00    3.030486e+03
  8.586859e+00    3.077446e+03
  8.639977e+00    3.061950e+03
  8.693095e+00    3.003630e+03
  8.746213e+00    2.969126e+03
  8.799331e+00    2.959197e+03
  8.852449e+00    2.915024e+03
  8.905568e+00    2.889524e+03
  8.958686e+00    2.953475e+03
  9.011804e+00    2.960474e+03
  9.064922e+00    2.904670e+03
  9.118040e+00    2.777538e+03
  9.171158e+00    2.769122e+03
  9.224276e+00    2.796744e+03
  9.277395e+00    2.747851e+03
  9.330513e+00    2.709268e+03
  9.383631e+00    2.709414e+03
  9.436749e+00    2.683478e+03
  9.489867e+00    2.702470e+03
  9.542985e+00    2.718444e+03
  9.596104e+00    2.725492e+03
  9.649222e+00    2.679731e+03
  9.702340e+00    2.646788e+03
  9.755458e+00    2.657819e+03
  9.808576e+00    2.617120e+03
  9.861694e+00    2.606361e+03
  9.914813e+00    2.615610e+03
  9.967931e+00    2.624903e+03
  1.002105e+01    2.608052e+03
  1.007417e+01    2.565170e+03
  1.012729e+01    2.509045e+03
  1.018040e+01    2.500010e+03
  1.023352e+01    2.499451e+03
  1.028664e+01    2.488411e+03
  1.033976e+01    2.507770e+03
  1.039288e+01    2.518976e+03
  1.044599e+01    2.490288e+03
  1.049911e+01    2.497965e+03
  1.055223e+01    2.491202e+03
  1.060535e+01    2.471884e+03
  1.065847e+01    2.454345e+03
  1.071158e+01    2.445841e+03
  1.076470e+01    2.431185e+03
  1.081782e+01    2.461598e+03
  1.087094e+01    2.482782e+03
  1.092406e+01    2.465304e+03
  1.097718e+01    2.450281e+03
  1.103029e+01    2.412583e+03
  1.108341e+01    2.391002e+03
  1.113653e+01    2.388200e+03
  1.118965e+01    2.370681e+03
  1.124277e+01    2.359905e+03
  1.129588e+01    2.355592e+03
  1.134900e+01    2.355910e+03
  1.140212e+01    2.333581e+03
  1.145524e+01    2.305427e+03
  1.150836e+01    2.303188e+03
  1.156148e+01    2.311062e+03
  1.161459e+01    2.325198e+03
  1.166771e+01    2.307933e+03
  1.172083e+01    2.325154e+03
  1.177395e+01    2.316406e+03
  1.182707e+01    2.316062e+03
  1.188018e+01    2.334339e+03
  1.193330e+01    2.327302e+03
  1.198642e+01    2.310911e+03
  1.203954e+01    2.282640e+03
  1.209266e+01    2.267733e+03
  1.214578e+01    2.259148e+03
  1.219889e+01    2.259666e+03
  1.225201e+01    2.266053e+03
  1.230513e+01    2.285326e+03
  1.235825e+01    2.288985e+03
  1.241137e+01    2.268864e+03
  1.246448e+01    2.264096e+03
  1.251760e+01    2.269730e+03
  1.257072e+01    2.268326e+03
  1.262384e+01    2.265649e+03
  1.267696e+01    2.250772e+03
  1.273008e+01    2.240911e+03
  1.278319e+01    2.220575e+03
  1.283631e+01    2.199341e+03
  1.288943e+01    2.192921e+03
  1.294255e+01    2.181943e+03
  1.299567e+01    2.177604e+03
  1.304878e+01    2.167500e+03
  1.310190e+01    2.161725e+03
  1.315502e+01    2.165555e+03
  1.320814e+01    2.141418e+03
  1.326126e+01    2.107916e+03
  1.331437e+01    2.089179e+03
  1.336749e+01    2.075666e+03
  1.342061e+01    2.056645e+03
  1.347373e+01    2.082160e+03
  1.352685e+01    2.088574e+03
  1.357997e+01    2.081518e+03
  1.363308e+01    2.072800e+03
  1.368620e+01    2.060990e+03
  1.373932e+01    2.045413e+03
  1.379244e+01    2.031931e+03
  1.384556e+01    2.026581e+03
  1.389867e+01    2.024732e+03
  1.395179e+01    2.020876e+03
  1.400491e+01    2.019964e+03
  1.405803e+01    2.012699e+03
  1.411115e+01    2.002757e+03
  1.416427e+01    1.996807e+03
  1.421738e+01    1.997200e+03
  1.427050e+01    1.990985e+03
  1.432362e+01    1.992759e+03
  1.437674e+01    1.996436e+03
  1.442986e+01    1.984962e+03
  1.448297e+01    1.976425e+03
  1.453609e+01    1.965678e+03
  1.458921e+01    1.955650e+03
  1.464233e+01    1.949842e+03
  1.469545e+01    1.945201e+03
  1.474857e+01    1.929918e+03
  1.480168e+01    1.947401e+03
  1.485480e+01    1.943607e+03
  1.490792e+01    1.935857e+03
  1.496104e+01    1.924717e+03
  1.501416e+01    1.921203e+03
  1.506727e+01    1.914925e+03
  1.512039e+01    1.911609e+03
  1.517351e+01    1.923512e+03
  1.522663e+01    1.936951e+03
  1.527975e+01    1.933957e+03
  1.533286e+01    1.919317e+03
  1.538598e+01    1.905909e+03
  1.543910e+01    1.894560e+03
  1.549222e+01    1.891963e+03
  1.554534e+01    1.895681e+03
  1.559846e+01    1.895334e+03
  1.565157e+01    1.886756e+03
  1.570469e+01    1.879030e+03
  1.575781e+01    1.873879e+03
  1.581093e+01    1.869867e+03
  1.586405e+01    1.867908e+03
  1.591716e+01    1.861285e+03
  1.597028e+01    1.854413e+03
  1.602340e+01    1.838156e+03
  1.607652e+01    1.823784e+03
  1.612964e+01    1.800995e+03
  1.618276e+01    1.791101e+03
  1.623587e+01    1.792262e+03
  1.628899e+01    1.809647e+03
  1.634211e+01    1.809768e+03
  1.639523e+01    1.805030e+03
  1.644835e+01    1.808100e+03
  1.650146e+01    1.802757e+03
  1.655458e+01    1.803196e+03
  1.660770e+01    1.797931e+03
  1.666082e+01    1.791582e+03
  1.671394e+01    1.790822e+03
  1.676706e+01    1.784854e+03
  1.682017e+01    1.798583e+03
  1.687329e+01    1.787200e+03
  1.692641e+01    1.780674e+03
  1.697953e+01    1.776303e+03
  1.703265e+01    1.771890e+03
  1.708576e+01    1.769175e+03
  1.713888e+01    1.762399e+03
  1.719200e+01    1.759549e+03
  1.724512e+01    1.750744e+03
  1.729824e+01    1.751261e+03
  1.735136e+01    1.745415e+03
  1.740447e+01    1.721111e+03
  1.745759e+01    1.730695e+03
  1.751071e+01    1.729916e+03
  1.756383e+01    1.739923e+03
  1.761695e+01    1.722535e+03
  1.767006e+01    1.719511e+03
  1.772318e+01    1.708753e+03
  1.777630e+01    1.709426e+03
  1.782942e+01    1.702171e+03
  1.788254e+01    1.699059e+03
  1.793565e+01    1.695420e+03
  1.798877e+01    1.693189e+03
  1.804189e+01    1.684945e+03
  1.809501e+01    1.679351e+03
  1.814813e+01    1.677759e+03
  1.820125e+01    1.671665e+03
  1.825436e+01    1.678909e+03
  1.830748e+01    1.671883e+03
  1.836060e+01    1.667617e+03
  1.841372e+01    1.667209e+03
  1.846684e+01    1.660361e+03
  1.851995e+01    1.641838e+03
  1.857307e+01    1.625039e+03
  1.862619e+01    1.614216e+03
  1.867931e+01    1.612526e+03
  1.873243e+01    1.632840e+03
  1.878555e+01    1.634484e+03
  1.883866e+01    1.634613e+03
  1.889178e+01    1.634937e+03
  1.894490e+01    1.645236e+03
  1.899802e+01    1.635793e+03
  1.905114e+01    1.628887e+03
  1.910425e+01    1.623903e+03
  1.915737e+01    1.620073e+03
  1.921049e+01    1.614683e+03
  1.926361e+01    1.611431e+03
  1.931673e+01    1.608283e+03
  1.936985e+01    1.606692e+03
  1.942296e+01    1.603224e+03
  1.947608e+01    1.602657e+03
  1.952920e+01    1.598222e+03
  1.958232e+01    1.598460e+03
  1.963544e+01    1.605101e+03
  1.968855e+01    1.588573e+03
  1.974167e+01    1.576401e+03
  1.979479e+01    1.581485e+03
  1.984791e+01    1.579426e+03
  1.990103e+01    1.577130e+03
  1.995414e+01    1.575427e+03
  2.000726e+01    1.572995e+03
  2.006038e+01    1.567954e+03
  2.011350e+01    1.564831e+03
  2.016662e+01    1.558114e+03
  2.021974e+01    1.562010e+03
  2.027285e+01    1.569451e+03
  2.032597e+01    1.552523e+03
  2.037909e+01    1.549006e+03
  2.043221e+01    1.543920e+03
  2.048533e+01    1.541011e+03
  2.053844e+01    1.542990e+03
  2.059156e+01    1.535719e+03
  2.064468e+01    1.533249e+03
  2.069780e+01    1.513395e+03
  2.075092e+01    1.486545e+03
  2.080404e+01    1.472654e+03
  2.085715e+01    1.492878e+03
  2.091027e+01    1.519780e+03
  2.096339e+01    1.529110e+03
  2.101651e+01    1.532238e+03
  2.106963e+01    1.536164e+03
  2.112274e+01    1.539589e+03
  2.117586e+01    1.541877e+03
  2.122898e+01    1.545521e+03
  2.128210e+01    1.542617e+03
  2.133522e+01    1.542386e+03
  2.138834e+01    1.540442e+03
  2.144145e+01    1.540687e+03
  2.149457e+01    1.541021e+03
  2.154769e+01    1.539039e+03
  2.160081e+01    1.537746e+03
  2.165393e+01    1.540143e+03
  2.170704e+01    1.540801e+03
  2.176016e+01    1.529692e+03
  2.181328e+01    1.538445e+03
  2.186640e+01    1.539327e+03
  2.191952e+01    1.536907e+03
  2.197263e+01    1.533083e+03
  2.202575e+01    1.532220e+03
  2.207887e+01    1.531754e+03
  2.213199e+01    1.530242e+03
  2.218511e+01    1.528715e+03
  2.223823e+01    1.527938e+03
  2.229134e+01    1.526302e+03
  2.234446e+01    1.524765e+03
  2.239758e+01    1.525068e+03
  2.245070e+01    1.522220e+03
  2.250382e+01    1.525080e+03
  2.255693e+01    1.520567e+03
  2.261005e+01    1.501104e+03
  2.266317e+01    1.488788e+03
  2.271629e+01    1.479059e+03
  2.276941e+01    1.469076e+03
  2.282253e+01    1.463057e+03
  2.287564e+01    1.457325e+03
  2.292876e+01    1.452666e+03
  2.298188e+01    1.449354e+03
  2.303500e+01    1.447173e+03
  2.308812e+01    1.444007e+03
  2.314123e+01    1.442712e+03
  2.319435e+01    1.437020e+03
  2.324747e+01    1.430845e+03
  2.330059e+01    1.425967e+03
  2.335371e+01    1.424151e+03
  2.340683e+01    1.418572e+03
  2.345994e+01    1.417164e+03
  2.351306e+01    1.414024e+03
  2.356618e+01    1.408794e+03
  2.361930e+01    1.402480e+03
  2.367242e+01    1.399029e+03
  2.372553e+01    1.392556e+03
  2.377865e+01    1.386248e+03
  2.383177e+01    1.381239e+03
  2.388489e+01    1.376124e+03
  2.393801e+01    1.373047e+03
  2.399113e+01    1.371205e+03
  2.404424e+01    1.368678e+03
  2.409736e+01    1.370286e+03
  2.415048e+01    1.364302e+03
  2.420360e+01    1.360486e+03
  2.425672e+01    1.356352e+03
  2.430983e+01    1.352886e+03
  2.436295e+01    1.349894e+03
  2.441607e+01    1.349278e+03
  2.446919e+01    1.344625e+03
  2.452231e+01    1.345353e+03
  2.457542e+01    1.341064e+03
  2.462854e+01    1.339746e+03
  2.468166e+01    1.338156e+03
  2.473478e+01    1.335431e+03
  2.478790e+01    1.328447e+03
  2.484102e+01    1.325275e+03
  2.489413e+01    1.320177e+03
  2.494725e+01    1.313724e+03
  2.500037e+01    1.310845e+03
  2.505349e+01    1.305419e+03
  2.510661e+01    1.301926e+03
  2.515972e+01    1.295962e+03
  2.521284e+01    1.296370e+03
  2.526596e+01    1.297266e+03
  2.531908e+01    1.288818e+03
  2.537220e+01    1.287166e+03
  2.542532e+01    1.285073e+03
  2.547843e+01    1.282074e+03
  2.553155e+01    1.273667e+03
  2.558467e+01    1.271500e+03
  2.563779e+01    1.261713e+03
  2.569091e+01    1.256469e+03
  2.574402e+01    1.248511e+03
  2.579714e+01    1.240078e+03
  2.585026e+01    1.230694e+03
  2.590338e+01    1.226120e+03
  2.595650e+01    1.222085e+03
  2.600962e+01    1.216135e+03
  2.606273e+01    1.221023e+03
  2.611585e+01    1.222241e+03
  2.616897e+01    1.216813e+03
  2.622209e+01    1.221410e+03
  2.627521e+01    1.210987e+03
  2.632832e+01    1.203884e+03
  2.638144e+01    1.202536e+03
  2.643456e+01    1.192573e+03
  2.648768e+01    1.186509e+03
  2.654080e+01    1.168726e+03
