# == pyFAI calibration ==
# Distance Sample to Detector: 0.2946421923531691 m
# PONI: 2.875e-01, 2.439e-01 m
# Rotations: -0.010990 -0.009181 0.000003 rad
# 
# == Fit2d calibration ==
# Distance Sample-beamCenter: 294.672 mm
# Center: x=1436.809, y=1655.851 pix
# Tilt: 0.820 deg  TiltPlanRot: -39.874 deg
# 
# Detector Pilatus 2M	 PixelSize= 1.720e-04, 1.720e-04 m
#    Detector has a mask: True 
#    Detector has a dark current: False 
#    detector has a flat field: False 
# 
# Wavelength: 2.0732883349524408e-11 m
# Mask applied: from detector
# Dark current applied: False
# Flat field applied: False
# Polarization factor: None
# Normalization factor: 1.0
# --> /gpfs/current/raw/FMue_3/FMue_3_20231024_175355_00021.dat
#        q_A^-1             I 
  3.483473e-02             nan
  8.795289e-02             nan
  1.410711e-01             nan
  1.941892e-01             nan
  2.473074e-01             nan
  3.004255e-01             nan
  3.535437e-01             nan
  4.066619e-01    9.659950e+03
  4.597800e-01    9.214163e+03
  5.128982e-01    8.280529e+03
  5.660163e-01    7.929032e+03
  6.191345e-01    7.932608e+03
  6.722527e-01    8.058539e+03
  7.253708e-01    8.409334e+03
  7.784890e-01    1.383244e+04
  8.316071e-01    2.738689e+04
  8.847253e-01    1.636560e+04
  9.378435e-01    9.401172e+03
  9.909616e-01    9.986883e+03
  1.044080e+00    1.017029e+04
  1.097198e+00    9.949979e+03
  1.150316e+00    1.032120e+04
  1.203434e+00    1.103168e+04
  1.256552e+00    1.206634e+04
  1.309671e+00    1.296495e+04
  1.362789e+00    1.384443e+04
  1.415907e+00    1.453941e+04
  1.469025e+00    1.476518e+04
  1.522143e+00    1.468969e+04
  1.575261e+00    1.423623e+04
  1.628380e+00    1.634925e+04
  1.681498e+00    1.795048e+04
  1.734616e+00    1.252401e+04
  1.787734e+00    1.058872e+04
  1.840852e+00    9.825898e+03
  1.893970e+00    9.293993e+03
  1.947089e+00    9.198993e+03
  2.000207e+00    8.835362e+03
  2.053325e+00    8.113591e+03
  2.106443e+00    7.869372e+03
  2.159561e+00    7.998357e+03
  2.212679e+00    8.177087e+03
  2.265797e+00    8.397315e+03
  2.318916e+00    8.270157e+03
  2.372034e+00    8.887249e+03
  2.425152e+00    1.349481e+04
  2.478270e+00    9.458235e+03
  2.531388e+00    8.150047e+03
  2.584506e+00    8.936884e+03
  2.637625e+00    8.802419e+03
  2.690743e+00    9.249510e+03
  2.743861e+00    1.262552e+04
  2.796979e+00    8.226554e+03
  2.850097e+00    5.876421e+03
  2.903215e+00    5.453746e+03
  2.956334e+00    5.277941e+03
  3.009452e+00    5.388522e+03
  3.062570e+00    6.234902e+03
  3.115688e+00    7.892938e+03
  3.168806e+00    8.896811e+03
  3.221924e+00    1.076581e+04
  3.275043e+00    9.865869e+03
  3.328161e+00    6.247078e+03
  3.381279e+00    5.989440e+03
  3.434397e+00    5.371476e+03
  3.487515e+00    5.080430e+03
  3.540633e+00    5.008498e+03
  3.593751e+00    5.147360e+03
  3.646870e+00    6.304399e+03
  3.699988e+00    5.547645e+03
  3.753106e+00    4.966074e+03
  3.806224e+00    5.159584e+03
  3.859342e+00    5.941022e+03
  3.912460e+00    5.595583e+03
  3.965579e+00    5.173547e+03
  4.018697e+00    5.498163e+03
  4.071815e+00    7.477561e+03
  4.124933e+00    8.111967e+03
  4.178051e+00    8.738746e+03
  4.231169e+00    6.879229e+03
  4.284288e+00    6.486927e+03
  4.337406e+00    7.307083e+03
  4.390524e+00    7.902613e+03
  4.443642e+00    1.030520e+04
  4.496760e+00    1.200133e+04
  4.549878e+00    9.615636e+03
  4.602997e+00    6.240535e+03
  4.656115e+00    5.237914e+03
  4.709233e+00    5.373667e+03
  4.762351e+00    6.070882e+03
  4.815469e+00    5.742584e+03
  4.868587e+00    5.372193e+03
  4.921705e+00    5.809018e+03
  4.974824e+00    5.703135e+03
  5.027942e+00    5.898932e+03
  5.081060e+00    5.716559e+03
  5.134178e+00    5.246979e+03
  5.187296e+00    5.161159e+03
  5.240414e+00    5.345017e+03
  5.293533e+00    4.958333e+03
  5.346651e+00    4.537059e+03
  5.399769e+00    4.334517e+03
  5.452887e+00    4.459253e+03
  5.506005e+00    4.631835e+03
  5.559123e+00    4.114894e+03
  5.612242e+00    3.962026e+03
  5.665360e+00    3.863565e+03
  5.718478e+00    3.576907e+03
  5.771596e+00    3.594183e+03
  5.824714e+00    3.721881e+03
  5.877832e+00    3.674997e+03
  5.930951e+00    3.752914e+03
  5.984069e+00    3.878715e+03
  6.037187e+00    3.797497e+03
  6.090305e+00    3.802340e+03
  6.143423e+00    3.746295e+03
  6.196541e+00    3.738463e+03
  6.249660e+00    4.250252e+03
  6.302778e+00    4.368094e+03
  6.355896e+00    4.009752e+03
  6.409014e+00    4.174361e+03
  6.462132e+00    4.054327e+03
  6.515250e+00    3.890414e+03
  6.568368e+00    3.704013e+03
  6.621487e+00    3.732140e+03
  6.674605e+00    3.672963e+03
  6.727723e+00    3.470826e+03
  6.780841e+00    3.411223e+03
  6.833959e+00    3.492501e+03
  6.887077e+00    3.405613e+03
  6.940196e+00    3.396962e+03
  6.993314e+00    3.463957e+03
  7.046432e+00    3.459018e+03
  7.099550e+00    3.734406e+03
  7.152668e+00    3.765255e+03
  7.205786e+00    3.465586e+03
  7.258905e+00    3.374445e+03
  7.312023e+00    3.242118e+03
  7.365141e+00    3.171859e+03
  7.418259e+00    3.141168e+03
  7.471377e+00    3.153546e+03
  7.524495e+00    3.257544e+03
  7.577614e+00    3.277501e+03
  7.630732e+00    3.338376e+03
  7.683850e+00    3.536237e+03
  7.736968e+00    3.707114e+03
  7.790086e+00    3.772677e+03
  7.843204e+00    3.669149e+03
  7.896322e+00    3.305023e+03
  7.949441e+00    3.091119e+03
  8.002559e+00    3.021892e+03
  8.055677e+00    3.010572e+03
  8.108795e+00    3.039434e+03
  8.161913e+00    3.179002e+03
  8.215031e+00    3.329091e+03
  8.268150e+00    3.160284e+03
  8.321268e+00    3.035541e+03
  8.374386e+00    3.069972e+03
  8.427504e+00    3.013160e+03
  8.480622e+00    2.974557e+03
  8.533740e+00    3.026837e+03
  8.586859e+00    3.068618e+03
  8.639977e+00    3.053912e+03
  8.693095e+00    2.991385e+03
  8.746213e+00    2.960216e+03
  8.799331e+00    2.955986e+03
  8.852449e+00    2.907462e+03
  8.905568e+00    2.885085e+03
  8.958686e+00    2.947720e+03
  9.011804e+00    2.952985e+03
  9.064922e+00    2.892254e+03
  9.118040e+00    2.768799e+03
  9.171158e+00    2.765773e+03
  9.224276e+00    2.785395e+03
  9.277395e+00    2.741107e+03
  9.330513e+00    2.705152e+03
  9.383631e+00    2.703024e+03
  9.436749e+00    2.679453e+03
  9.489867e+00    2.699427e+03
  9.542985e+00    2.713044e+03
  9.596104e+00    2.716026e+03
  9.649222e+00    2.667539e+03
  9.702340e+00    2.639913e+03
  9.755458e+00    2.648816e+03
  9.808576e+00    2.609492e+03
  9.861694e+00    2.600060e+03
  9.914813e+00    2.610228e+03
  9.967931e+00    2.617083e+03
  1.002105e+01    2.601960e+03
  1.007417e+01    2.555813e+03
  1.012729e+01    2.498589e+03
  1.018040e+01    2.494504e+03
  1.023352e+01    2.491778e+03
  1.028664e+01    2.481670e+03
  1.033976e+01    2.498402e+03
  1.039288e+01    2.510198e+03
  1.044599e+01    2.483749e+03
  1.049911e+01    2.491082e+03
  1.055223e+01    2.484676e+03
  1.060535e+01    2.461698e+03
  1.065847e+01    2.448308e+03
  1.071158e+01    2.438555e+03
  1.076470e+01    2.426385e+03
  1.081782e+01    2.456978e+03
  1.087094e+01    2.472335e+03
  1.092406e+01    2.453679e+03
  1.097718e+01    2.439606e+03
  1.103029e+01    2.404763e+03
  1.108341e+01    2.387869e+03
  1.113653e+01    2.383786e+03
  1.118965e+01    2.363408e+03
  1.124277e+01    2.352822e+03
  1.129588e+01    2.349430e+03
  1.134900e+01    2.346847e+03
  1.140212e+01    2.325900e+03
  1.145524e+01    2.300941e+03
  1.150836e+01    2.299364e+03
  1.156148e+01    2.305503e+03
  1.161459e+01    2.317365e+03
  1.166771e+01    2.303124e+03
  1.172083e+01    2.320994e+03
  1.177395e+01    2.308816e+03
  1.182707e+01    2.312267e+03
  1.188018e+01    2.327635e+03
  1.193330e+01    2.320886e+03
  1.198642e+01    2.301442e+03
  1.203954e+01    2.274430e+03
  1.209266e+01    2.263035e+03
  1.214578e+01    2.254341e+03
  1.219889e+01    2.255643e+03
  1.225201e+01    2.261479e+03
  1.230513e+01    2.279141e+03
  1.235825e+01    2.280689e+03
  1.241137e+01    2.259459e+03
  1.246448e+01    2.256878e+03
  1.251760e+01    2.263211e+03
  1.257072e+01    2.260222e+03
  1.262384e+01    2.258760e+03
  1.267696e+01    2.243326e+03
  1.273008e+01    2.231715e+03
  1.278319e+01    2.212934e+03
  1.283631e+01    2.194126e+03
  1.288943e+01    2.187276e+03
  1.294255e+01    2.175256e+03
  1.299567e+01    2.171061e+03
  1.304878e+01    2.160118e+03
  1.310190e+01    2.157564e+03
  1.315502e+01    2.157431e+03
  1.320814e+01    2.133473e+03
  1.326126e+01    2.098898e+03
  1.331437e+01    2.082117e+03
  1.336749e+01    2.068469e+03
  1.342061e+01    2.052844e+03
  1.347373e+01    2.076853e+03
  1.352685e+01    2.080975e+03
  1.357997e+01    2.075108e+03
  1.363308e+01    2.065368e+03
  1.368620e+01    2.053949e+03
  1.373932e+01    2.038973e+03
  1.379244e+01    2.027018e+03
  1.384556e+01    2.021967e+03
  1.389867e+01    2.019670e+03
  1.395179e+01    2.014887e+03
  1.400491e+01    2.012627e+03
  1.405803e+01    2.006374e+03
  1.411115e+01    1.999135e+03
  1.416427e+01    1.993448e+03
  1.421738e+01    1.992318e+03
  1.427050e+01    1.985022e+03
  1.432362e+01    1.987945e+03
  1.437674e+01    1.990512e+03
  1.442986e+01    1.979575e+03
  1.448297e+01    1.969572e+03
  1.453609e+01    1.959256e+03
  1.458921e+01    1.950972e+03
  1.464233e+01    1.945661e+03
  1.469545e+01    1.940617e+03
  1.474857e+01    1.925392e+03
  1.480168e+01    1.941774e+03
  1.485480e+01    1.937311e+03
  1.490792e+01    1.930001e+03
  1.496104e+01    1.919174e+03
  1.501416e+01    1.915923e+03
  1.506727e+01    1.909595e+03
  1.512039e+01    1.906660e+03
  1.517351e+01    1.917917e+03
  1.522663e+01    1.930630e+03
  1.527975e+01    1.927433e+03
  1.533286e+01    1.913654e+03
  1.538598e+01    1.900210e+03
  1.543910e+01    1.887699e+03
  1.549222e+01    1.887734e+03
  1.554534e+01    1.891136e+03
  1.559846e+01    1.888438e+03
  1.565157e+01    1.880823e+03
  1.570469e+01    1.872621e+03
  1.575781e+01    1.869711e+03
  1.581093e+01    1.863390e+03
  1.586405e+01    1.862945e+03
  1.591716e+01    1.856011e+03
  1.597028e+01    1.848492e+03
  1.602340e+01    1.831641e+03
  1.607652e+01    1.819483e+03
  1.612964e+01    1.796570e+03
  1.618276e+01    1.784317e+03
  1.623587e+01    1.787700e+03
  1.628899e+01    1.805857e+03
  1.634211e+01    1.805511e+03
  1.639523e+01    1.801257e+03
  1.644835e+01    1.803882e+03
  1.650146e+01    1.798389e+03
  1.655458e+01    1.798385e+03
  1.660770e+01    1.793309e+03
  1.666082e+01    1.786054e+03
  1.671394e+01    1.785100e+03
  1.676706e+01    1.780893e+03
  1.682017e+01    1.793624e+03
  1.687329e+01    1.781332e+03
  1.692641e+01    1.776065e+03
  1.697953e+01    1.772294e+03
  1.703265e+01    1.767898e+03
  1.708576e+01    1.765994e+03
  1.713888e+01    1.757161e+03
  1.719200e+01    1.755490e+03
  1.724512e+01    1.747613e+03
  1.729824e+01    1.746516e+03
  1.735136e+01    1.741153e+03
  1.740447e+01    1.717867e+03
  1.745759e+01    1.725326e+03
  1.751071e+01    1.726176e+03
  1.756383e+01    1.736560e+03
  1.761695e+01    1.718978e+03
  1.767006e+01    1.715073e+03
  1.772318e+01    1.706378e+03
  1.777630e+01    1.706610e+03
  1.782942e+01    1.697838e+03
  1.788254e+01    1.693298e+03
  1.793565e+01    1.691206e+03
  1.798877e+01    1.688513e+03
  1.804189e+01    1.681662e+03
  1.809501e+01    1.676881e+03
  1.814813e+01    1.674422e+03
  1.820125e+01    1.667612e+03
  1.825436e+01    1.674875e+03
  1.830748e+01    1.667407e+03
  1.836060e+01    1.663031e+03
  1.841372e+01    1.662568e+03
  1.846684e+01    1.656876e+03
  1.851995e+01    1.636310e+03
  1.857307e+01    1.620813e+03
  1.862619e+01    1.609400e+03
  1.867931e+01    1.607296e+03
  1.873243e+01    1.627892e+03
  1.878555e+01    1.631111e+03
  1.883866e+01    1.629601e+03
  1.889178e+01    1.628862e+03
  1.894490e+01    1.641188e+03
  1.899802e+01    1.629932e+03
  1.905114e+01    1.625234e+03
  1.910425e+01    1.619030e+03
  1.915737e+01    1.614123e+03
  1.921049e+01    1.609286e+03
  1.926361e+01    1.607030e+03
  1.931673e+01    1.603089e+03
  1.936985e+01    1.601355e+03
  1.942296e+01    1.597673e+03
  1.947608e+01    1.597598e+03
  1.952920e+01    1.594543e+03
  1.958232e+01    1.594999e+03
  1.963544e+01    1.599915e+03
  1.968855e+01    1.583654e+03
  1.974167e+01    1.572289e+03
  1.979479e+01    1.577100e+03
  1.984791e+01    1.574785e+03
  1.990103e+01    1.573153e+03
  1.995414e+01    1.571328e+03
  2.000726e+01    1.568642e+03
  2.006038e+01    1.564701e+03
  2.011350e+01    1.560751e+03
  2.016662e+01    1.555742e+03
  2.021974e+01    1.557866e+03
  2.027285e+01    1.565118e+03
  2.032597e+01    1.548234e+03
  2.037909e+01    1.542255e+03
  2.043221e+01    1.538255e+03
  2.048533e+01    1.537443e+03
  2.053844e+01    1.537872e+03
  2.059156e+01    1.531261e+03
  2.064468e+01    1.527547e+03
  2.069780e+01    1.507134e+03
  2.075092e+01    1.482486e+03
  2.080404e+01    1.466762e+03
  2.085715e+01    1.486416e+03
  2.091027e+01    1.515133e+03
  2.096339e+01    1.523633e+03
  2.101651e+01    1.528195e+03
  2.106963e+01    1.532261e+03
  2.112274e+01    1.535254e+03
  2.117586e+01    1.537119e+03
  2.122898e+01    1.540213e+03
  2.128210e+01    1.538151e+03
  2.133522e+01    1.538388e+03
  2.138834e+01    1.535117e+03
  2.144145e+01    1.536122e+03
  2.149457e+01    1.534862e+03
  2.154769e+01    1.535084e+03
  2.160081e+01    1.533633e+03
  2.165393e+01    1.534910e+03
  2.170704e+01    1.536117e+03
  2.176016e+01    1.524931e+03
  2.181328e+01    1.533702e+03
  2.186640e+01    1.534422e+03
  2.191952e+01    1.532560e+03
  2.197263e+01    1.530255e+03
  2.202575e+01    1.527206e+03
  2.207887e+01    1.527847e+03
  2.213199e+01    1.525547e+03
  2.218511e+01    1.523453e+03
  2.223823e+01    1.522783e+03
  2.229134e+01    1.521315e+03
  2.234446e+01    1.520161e+03
  2.239758e+01    1.520169e+03
  2.245070e+01    1.516948e+03
  2.250382e+01    1.518991e+03
  2.255693e+01    1.515044e+03
  2.261005e+01    1.495515e+03
  2.266317e+01    1.484876e+03
  2.271629e+01    1.474815e+03
  2.276941e+01    1.465031e+03
  2.282253e+01    1.458307e+03
  2.287564e+01    1.453364e+03
  2.292876e+01    1.448115e+03
  2.298188e+01    1.446024e+03
  2.303500e+01    1.442419e+03
  2.308812e+01    1.439744e+03
  2.314123e+01    1.436380e+03
  2.319435e+01    1.432337e+03
  2.324747e+01    1.424828e+03
  2.330059e+01    1.421372e+03
  2.335371e+01    1.420567e+03
  2.340683e+01    1.415849e+03
  2.345994e+01    1.411847e+03
  2.351306e+01    1.407725e+03
  2.356618e+01    1.404438e+03
  2.361930e+01    1.399147e+03
  2.367242e+01    1.393363e+03
  2.372553e+01    1.386410e+03
  2.377865e+01    1.380765e+03
  2.383177e+01    1.378030e+03
  2.388489e+01    1.373306e+03
  2.393801e+01    1.369214e+03
  2.399113e+01    1.367492e+03
  2.404424e+01    1.365394e+03
  2.409736e+01    1.361974e+03
  2.415048e+01    1.356813e+03
  2.420360e+01    1.354422e+03
  2.425672e+01    1.351385e+03
  2.430983e+01    1.349606e+03
  2.436295e+01    1.345342e+03
  2.441607e+01    1.344599e+03
  2.446919e+01    1.342523e+03
  2.452231e+01    1.339692e+03
  2.457542e+01    1.337796e+03
  2.462854e+01    1.336899e+03
  2.468166e+01    1.337100e+03
  2.473478e+01    1.330608e+03
  2.478790e+01    1.322142e+03
  2.484102e+01    1.321002e+03
  2.489413e+01    1.315573e+03
  2.494725e+01    1.308884e+03
  2.500037e+01    1.306639e+03
  2.505349e+01    1.299879e+03
  2.510661e+01    1.296543e+03
  2.515972e+01    1.292109e+03
  2.521284e+01    1.291833e+03
  2.526596e+01    1.289884e+03
  2.531908e+01    1.285144e+03
  2.537220e+01    1.282823e+03
  2.542532e+01    1.278590e+03
  2.547843e+01    1.275671e+03
  2.553155e+01    1.271838e+03
  2.558467e+01    1.264610e+03
  2.563779e+01    1.257466e+03
  2.569091e+01    1.254321e+03
  2.574402e+01    1.243392e+03
  2.579714e+01    1.236418e+03
  2.585026e+01    1.226890e+03
  2.590338e+01    1.220125e+03
  2.595650e+01    1.220880e+03
  2.600962e+01    1.217224e+03
  2.606273e+01    1.216401e+03
  2.611585e+01    1.215551e+03
  2.616897e+01    1.213858e+03
  2.622209e+01    1.217039e+03
  2.627521e+01    1.208873e+03
  2.632832e+01    1.197818e+03
  2.638144e+01    1.200179e+03
  2.643456e+01    1.195554e+03
  2.648768e+01    1.176068e+03
  2.654080e+01    1.169320e+03
