# == pyFAI calibration ==
# Distance Sample to Detector: 0.2946421923531691 m
# PONI: 2.875e-01, 2.439e-01 m
# Rotations: -0.010990 -0.009181 0.000003 rad
# 
# == Fit2d calibration ==
# Distance Sample-beamCenter: 294.672 mm
# Center: x=1436.809, y=1655.851 pix
# Tilt: 0.820 deg  TiltPlanRot: -39.874 deg
# 
# Detector Pilatus 2M	 PixelSize= 1.720e-04, 1.720e-04 m
#    Detector has a mask: True 
#    Detector has a dark current: False 
#    detector has a flat field: False 
# 
# Wavelength: 2.0732883349524408e-11 m
# Mask applied: from detector
# Dark current applied: False
# Flat field applied: False
# Polarization factor: None
# Normalization factor: 1.0
# --> /gpfs/current/raw/FMue_3/FMue_3_20231024_175355_00010.dat
#        q_A^-1             I 
  3.483473e-02             nan
  8.795289e-02             nan
  1.410711e-01             nan
  1.941892e-01             nan
  2.473074e-01             nan
  3.004255e-01             nan
  3.535437e-01             nan
  4.066619e-01    9.555993e+03
  4.597800e-01    9.119188e+03
  5.128982e-01    8.207249e+03
  5.660163e-01    7.875350e+03
  6.191345e-01    7.897715e+03
  6.722527e-01    8.045252e+03
  7.253708e-01    8.402045e+03
  7.784890e-01    1.366829e+04
  8.316071e-01    2.730926e+04
  8.847253e-01    1.655946e+04
  9.378435e-01    9.403809e+03
  9.909616e-01    9.982503e+03
  1.044080e+00    1.016800e+04
  1.097198e+00    9.964307e+03
  1.150316e+00    1.035546e+04
  1.203434e+00    1.104695e+04
  1.256552e+00    1.208225e+04
  1.309671e+00    1.303827e+04
  1.362789e+00    1.389085e+04
  1.415907e+00    1.458228e+04
  1.469025e+00    1.481793e+04
  1.522143e+00    1.474720e+04
  1.575261e+00    1.428581e+04
  1.628380e+00    1.634312e+04
  1.681498e+00    1.810566e+04
  1.734616e+00    1.267537e+04
  1.787734e+00    1.063403e+04
  1.840852e+00    9.870472e+03
  1.893970e+00    9.337104e+03
  1.947089e+00    9.244750e+03
  2.000207e+00    8.880812e+03
  2.053325e+00    8.162709e+03
  2.106443e+00    7.913660e+03
  2.159561e+00    8.038204e+03
  2.212679e+00    8.208498e+03
  2.265797e+00    8.429544e+03
  2.318916e+00    8.300077e+03
  2.372034e+00    8.846414e+03
  2.425152e+00    1.356550e+04
  2.478270e+00    9.583716e+03
  2.531388e+00    8.161935e+03
  2.584506e+00    8.954445e+03
  2.637625e+00    8.840210e+03
  2.690743e+00    9.201954e+03
  2.743861e+00    1.267397e+04
  2.796979e+00    8.346409e+03
  2.850097e+00    5.900225e+03
  2.903215e+00    5.463133e+03
  2.956334e+00    5.284346e+03
  3.009452e+00    5.392313e+03
  3.062570e+00    6.228781e+03
  3.115688e+00    7.887748e+03
  3.168806e+00    8.924023e+03
  3.221924e+00    1.073675e+04
  3.275043e+00    1.006922e+04
  3.328161e+00    6.305572e+03
  3.381279e+00    6.019666e+03
  3.434397e+00    5.395559e+03
  3.487515e+00    5.090831e+03
  3.540633e+00    5.019450e+03
  3.593751e+00    5.133181e+03
  3.646870e+00    6.320638e+03
  3.699988e+00    5.616380e+03
  3.753106e+00    4.977024e+03
  3.806224e+00    5.152592e+03
  3.859342e+00    5.938353e+03
  3.912460e+00    5.650313e+03
  3.965579e+00    5.179295e+03
  4.018697e+00    5.491677e+03
  4.071815e+00    7.423688e+03
  4.124933e+00    8.163211e+03
  4.178051e+00    8.781368e+03
  4.231169e+00    6.956919e+03
  4.284288e+00    6.473702e+03
  4.337406e+00    7.329185e+03
  4.390524e+00    7.896518e+03
  4.443642e+00    1.031959e+04
  4.496760e+00    1.206162e+04
  4.549878e+00    9.731759e+03
  4.602997e+00    6.304775e+03
  4.656115e+00    5.253321e+03
  4.709233e+00    5.356284e+03
  4.762351e+00    6.079196e+03
  4.815469e+00    5.782384e+03
  4.868587e+00    5.376258e+03
  4.921705e+00    5.815362e+03
  4.974824e+00    5.724560e+03
  5.027942e+00    5.911777e+03
  5.081060e+00    5.780324e+03
  5.134178e+00    5.270864e+03
  5.187296e+00    5.158050e+03
  5.240414e+00    5.368473e+03
  5.293533e+00    4.988389e+03
  5.346651e+00    4.559085e+03
  5.399769e+00    4.342382e+03
  5.452887e+00    4.459394e+03
  5.506005e+00    4.651886e+03
  5.559123e+00    4.138051e+03
  5.612242e+00    3.964998e+03
  5.665360e+00    3.894635e+03
  5.718478e+00    3.584014e+03
  5.771596e+00    3.597295e+03
  5.824714e+00    3.735274e+03
  5.877832e+00    3.691772e+03
  5.930951e+00    3.755951e+03
  5.984069e+00    3.899724e+03
  6.037187e+00    3.813727e+03
  6.090305e+00    3.807142e+03
  6.143423e+00    3.761104e+03
  6.196541e+00    3.743666e+03
  6.249660e+00    4.241162e+03
  6.302778e+00    4.401229e+03
  6.355896e+00    4.020192e+03
  6.409014e+00    4.191786e+03
  6.462132e+00    4.081537e+03
  6.515250e+00    3.920334e+03
  6.568368e+00    3.729553e+03
  6.621487e+00    3.735883e+03
  6.674605e+00    3.697995e+03
  6.727723e+00    3.488255e+03
  6.780841e+00    3.412965e+03
  6.833959e+00    3.494158e+03
  6.887077e+00    3.423303e+03
  6.940196e+00    3.398458e+03
  6.993314e+00    3.483835e+03
  7.046432e+00    3.462994e+03
  7.099550e+00    3.733337e+03
  7.152668e+00    3.807816e+03
  7.205786e+00    3.488242e+03
  7.258905e+00    3.394594e+03
  7.312023e+00    3.256419e+03
  7.365141e+00    3.175571e+03
  7.418259e+00    3.147230e+03
  7.471377e+00    3.155898e+03
  7.524495e+00    3.263061e+03
  7.577614e+00    3.288190e+03
  7.630732e+00    3.343491e+03
  7.683850e+00    3.545323e+03
  7.736968e+00    3.722134e+03
  7.790086e+00    3.791321e+03
  7.843204e+00    3.704347e+03
  7.896322e+00    3.337902e+03
  7.949441e+00    3.101016e+03
  8.002559e+00    3.031195e+03
  8.055677e+00    3.015621e+03
  8.108795e+00    3.039622e+03
  8.161913e+00    3.179536e+03
  8.215031e+00    3.348972e+03
  8.268150e+00    3.183771e+03
  8.321268e+00    3.040013e+03
  8.374386e+00    3.078517e+03
  8.427504e+00    3.023025e+03
  8.480622e+00    2.982031e+03
  8.533740e+00    3.032681e+03
  8.586859e+00    3.084316e+03
  8.639977e+00    3.067955e+03
  8.693095e+00    3.005887e+03
  8.746213e+00    2.972545e+03
  8.799331e+00    2.965884e+03
  8.852449e+00    2.919277e+03
  8.905568e+00    2.892100e+03
  8.958686e+00    2.954791e+03
  9.011804e+00    2.966684e+03
  9.064922e+00    2.910528e+03
  9.118040e+00    2.780626e+03
  9.171158e+00    2.770615e+03
  9.224276e+00    2.799823e+03
  9.277395e+00    2.754042e+03
  9.330513e+00    2.716134e+03
  9.383631e+00    2.712815e+03
  9.436749e+00    2.687535e+03
  9.489867e+00    2.705186e+03
  9.542985e+00    2.723764e+03
  9.596104e+00    2.730366e+03
  9.649222e+00    2.683506e+03
  9.702340e+00    2.650796e+03
  9.755458e+00    2.662297e+03
  9.808576e+00    2.621495e+03
  9.861694e+00    2.610344e+03
  9.914813e+00    2.619054e+03
  9.967931e+00    2.629133e+03
  1.002105e+01    2.613666e+03
  1.007417e+01    2.568674e+03
  1.012729e+01    2.512092e+03
  1.018040e+01    2.503671e+03
  1.023352e+01    2.502943e+03
  1.028664e+01    2.491266e+03
  1.033976e+01    2.512786e+03
  1.039288e+01    2.522075e+03
  1.044599e+01    2.493115e+03
  1.049911e+01    2.500492e+03
  1.055223e+01    2.496204e+03
  1.060535e+01    2.474368e+03
  1.065847e+01    2.458906e+03
  1.071158e+01    2.448627e+03
  1.076470e+01    2.434176e+03
  1.081782e+01    2.464389e+03
  1.087094e+01    2.488334e+03
  1.092406e+01    2.468586e+03
  1.097718e+01    2.452976e+03
  1.103029e+01    2.415848e+03
  1.108341e+01    2.395958e+03
  1.113653e+01    2.390845e+03
  1.118965e+01    2.373484e+03
  1.124277e+01    2.364592e+03
  1.129588e+01    2.359635e+03
  1.134900e+01    2.358985e+03
  1.140212e+01    2.338653e+03
  1.145524e+01    2.309861e+03
  1.150836e+01    2.305550e+03
  1.156148e+01    2.312050e+03
  1.161459e+01    2.329447e+03
  1.166771e+01    2.312614e+03
  1.172083e+01    2.330278e+03
  1.177395e+01    2.319940e+03
  1.182707e+01    2.322047e+03
  1.188018e+01    2.338662e+03
  1.193330e+01    2.332166e+03
  1.198642e+01    2.312358e+03
  1.203954e+01    2.286565e+03
  1.209266e+01    2.273489e+03
  1.214578e+01    2.263600e+03
  1.219889e+01    2.263240e+03
  1.225201e+01    2.271349e+03
  1.230513e+01    2.288209e+03
  1.235825e+01    2.292972e+03
  1.241137e+01    2.272565e+03
  1.246448e+01    2.265365e+03
  1.251760e+01    2.272442e+03
  1.257072e+01    2.270993e+03
  1.262384e+01    2.268181e+03
  1.267696e+01    2.253043e+03
  1.273008e+01    2.245626e+03
  1.278319e+01    2.224631e+03
  1.283631e+01    2.204583e+03
  1.288943e+01    2.195547e+03
  1.294255e+01    2.185076e+03
  1.299567e+01    2.180418e+03
  1.304878e+01    2.167862e+03
  1.310190e+01    2.166365e+03
  1.315502e+01    2.167404e+03
  1.320814e+01    2.145592e+03
  1.326126e+01    2.111324e+03
  1.331437e+01    2.092827e+03
  1.336749e+01    2.078055e+03
  1.342061e+01    2.060390e+03
  1.347373e+01    2.086737e+03
  1.352685e+01    2.089349e+03
  1.357997e+01    2.083364e+03
  1.363308e+01    2.077413e+03
  1.368620e+01    2.065557e+03
  1.373932e+01    2.048102e+03
  1.379244e+01    2.036453e+03
  1.384556e+01    2.030819e+03
  1.389867e+01    2.024717e+03
  1.395179e+01    2.023947e+03
  1.400491e+01    2.022254e+03
  1.405803e+01    2.017166e+03
  1.411115e+01    2.006049e+03
  1.416427e+01    2.001775e+03
  1.421738e+01    2.000532e+03
  1.427050e+01    1.993028e+03
  1.432362e+01    1.996871e+03
  1.437674e+01    1.997228e+03
  1.442986e+01    1.989755e+03
  1.448297e+01    1.978665e+03
  1.453609e+01    1.969545e+03
  1.458921e+01    1.957337e+03
  1.464233e+01    1.953607e+03
  1.469545e+01    1.949510e+03
  1.474857e+01    1.934308e+03
  1.480168e+01    1.951306e+03
  1.485480e+01    1.946344e+03
  1.490792e+01    1.938429e+03
  1.496104e+01    1.926566e+03
  1.501416e+01    1.923568e+03
  1.506727e+01    1.917909e+03
  1.512039e+01    1.913852e+03
  1.517351e+01    1.925218e+03
  1.522663e+01    1.939546e+03
  1.527975e+01    1.935726e+03
  1.533286e+01    1.921955e+03
  1.538598e+01    1.909752e+03
  1.543910e+01    1.897185e+03
  1.549222e+01    1.895210e+03
  1.554534e+01    1.899441e+03
  1.559846e+01    1.897007e+03
  1.565157e+01    1.889784e+03
  1.570469e+01    1.881750e+03
  1.575781e+01    1.877575e+03
  1.581093e+01    1.872723e+03
  1.586405e+01    1.870966e+03
  1.591716e+01    1.864253e+03
  1.597028e+01    1.856656e+03
  1.602340e+01    1.840531e+03
  1.607652e+01    1.827979e+03
  1.612964e+01    1.803114e+03
  1.618276e+01    1.794466e+03
  1.623587e+01    1.795098e+03
  1.628899e+01    1.812783e+03
  1.634211e+01    1.812590e+03
  1.639523e+01    1.808583e+03
  1.644835e+01    1.810807e+03
  1.650146e+01    1.805153e+03
  1.655458e+01    1.806426e+03
  1.660770e+01    1.801738e+03
  1.666082e+01    1.794909e+03
  1.671394e+01    1.792563e+03
  1.676706e+01    1.786943e+03
  1.682017e+01    1.799133e+03
  1.687329e+01    1.788999e+03
  1.692641e+01    1.783034e+03
  1.697953e+01    1.778969e+03
  1.703265e+01    1.775133e+03
  1.708576e+01    1.771930e+03
  1.713888e+01    1.764434e+03
  1.719200e+01    1.763076e+03
  1.724512e+01    1.753794e+03
  1.729824e+01    1.752477e+03
  1.735136e+01    1.747812e+03
  1.740447e+01    1.724113e+03
  1.745759e+01    1.732261e+03
  1.751071e+01    1.732212e+03
  1.756383e+01    1.742091e+03
  1.761695e+01    1.724638e+03
  1.767006e+01    1.722607e+03
  1.772318e+01    1.712726e+03
  1.777630e+01    1.712821e+03
  1.782942e+01    1.704700e+03
  1.788254e+01    1.702307e+03
  1.793565e+01    1.698940e+03
  1.798877e+01    1.695173e+03
  1.804189e+01    1.687661e+03
  1.809501e+01    1.682940e+03
  1.814813e+01    1.680147e+03
  1.820125e+01    1.674498e+03
  1.825436e+01    1.681279e+03
  1.830748e+01    1.675200e+03
  1.836060e+01    1.669407e+03
  1.841372e+01    1.667740e+03
  1.846684e+01    1.663795e+03
  1.851995e+01    1.644260e+03
  1.857307e+01    1.627392e+03
  1.862619e+01    1.617394e+03
  1.867931e+01    1.612834e+03
  1.873243e+01    1.635085e+03
  1.878555e+01    1.637536e+03
  1.883866e+01    1.637777e+03
  1.889178e+01    1.634862e+03
  1.894490e+01    1.647966e+03
  1.899802e+01    1.637930e+03
  1.905114e+01    1.632359e+03
  1.910425e+01    1.625421e+03
  1.915737e+01    1.621352e+03
  1.921049e+01    1.615876e+03
  1.926361e+01    1.612512e+03
  1.931673e+01    1.609452e+03
  1.936985e+01    1.607918e+03
  1.942296e+01    1.606121e+03
  1.947608e+01    1.605604e+03
  1.952920e+01    1.601510e+03
  1.958232e+01    1.601685e+03
  1.963544e+01    1.606585e+03
  1.968855e+01    1.591115e+03
  1.974167e+01    1.578289e+03
  1.979479e+01    1.585094e+03
  1.984791e+01    1.582767e+03
  1.990103e+01    1.580062e+03
  1.995414e+01    1.577516e+03
  2.000726e+01    1.576016e+03
  2.006038e+01    1.570899e+03
  2.011350e+01    1.567724e+03
  2.016662e+01    1.560995e+03
  2.021974e+01    1.564989e+03
  2.027285e+01    1.572125e+03
  2.032597e+01    1.555066e+03
  2.037909e+01    1.549959e+03
  2.043221e+01    1.545712e+03
  2.048533e+01    1.543572e+03
  2.053844e+01    1.543651e+03
  2.059156e+01    1.538681e+03
  2.064468e+01    1.534211e+03
  2.069780e+01    1.514406e+03
  2.075092e+01    1.489541e+03
  2.080404e+01    1.474324e+03
  2.085715e+01    1.493271e+03
  2.091027e+01    1.522165e+03
  2.096339e+01    1.529813e+03
  2.101651e+01    1.534816e+03
  2.106963e+01    1.538312e+03
  2.112274e+01    1.542976e+03
  2.117586e+01    1.544238e+03
  2.122898e+01    1.546449e+03
  2.128210e+01    1.544388e+03
  2.133522e+01    1.543756e+03
  2.138834e+01    1.542600e+03
  2.144145e+01    1.542969e+03
  2.149457e+01    1.541820e+03
  2.154769e+01    1.541286e+03
  2.160081e+01    1.541363e+03
  2.165393e+01    1.543409e+03
  2.170704e+01    1.543557e+03
  2.176016e+01    1.532435e+03
  2.181328e+01    1.539756e+03
  2.186640e+01    1.540877e+03
  2.191952e+01    1.539904e+03
  2.197263e+01    1.537841e+03
  2.202575e+01    1.534286e+03
  2.207887e+01    1.533835e+03
  2.213199e+01    1.531809e+03
  2.218511e+01    1.529192e+03
  2.223823e+01    1.530411e+03
  2.229134e+01    1.528577e+03
  2.234446e+01    1.527021e+03
  2.239758e+01    1.527578e+03
  2.245070e+01    1.523689e+03
  2.250382e+01    1.525127e+03
  2.255693e+01    1.521801e+03
  2.261005e+01    1.503712e+03
  2.266317e+01    1.492873e+03
  2.271629e+01    1.482936e+03
  2.276941e+01    1.471704e+03
  2.282253e+01    1.465561e+03
  2.287564e+01    1.460515e+03
  2.292876e+01    1.453895e+03
  2.298188e+01    1.450938e+03
  2.303500e+01    1.449269e+03
  2.308812e+01    1.446870e+03
  2.314123e+01    1.444189e+03
  2.319435e+01    1.440434e+03
  2.324747e+01    1.432073e+03
  2.330059e+01    1.428178e+03
  2.335371e+01    1.426235e+03
  2.340683e+01    1.421853e+03
  2.345994e+01    1.418309e+03
  2.351306e+01    1.417388e+03
  2.356618e+01    1.411306e+03
  2.361930e+01    1.404773e+03
  2.367242e+01    1.399450e+03
  2.372553e+01    1.393883e+03
  2.377865e+01    1.389870e+03
  2.383177e+01    1.384333e+03
  2.388489e+01    1.378920e+03
  2.393801e+01    1.374933e+03
  2.399113e+01    1.371790e+03
  2.404424e+01    1.372433e+03
  2.409736e+01    1.369748e+03
  2.415048e+01    1.365753e+03
  2.420360e+01    1.362226e+03
  2.425672e+01    1.357456e+03
  2.430983e+01    1.354241e+03
  2.436295e+01    1.354060e+03
  2.441607e+01    1.349856e+03
  2.446919e+01    1.347257e+03
  2.452231e+01    1.345709e+03
  2.457542e+01    1.343778e+03
  2.462854e+01    1.341167e+03
  2.468166e+01    1.342372e+03
  2.473478e+01    1.335665e+03
  2.478790e+01    1.328660e+03
  2.484102e+01    1.325110e+03
  2.489413e+01    1.321208e+03
  2.494725e+01    1.316097e+03
  2.500037e+01    1.311715e+03
  2.505349e+01    1.311213e+03
  2.510661e+01    1.303124e+03
  2.515972e+01    1.298632e+03
  2.521284e+01    1.298954e+03
  2.526596e+01    1.296530e+03
  2.531908e+01    1.288709e+03
  2.537220e+01    1.290649e+03
  2.542532e+01    1.286629e+03
  2.547843e+01    1.284421e+03
  2.553155e+01    1.277012e+03
  2.558467e+01    1.270566e+03
  2.563779e+01    1.259908e+03
  2.569091e+01    1.259410e+03
  2.574402e+01    1.246796e+03
  2.579714e+01    1.244071e+03
  2.585026e+01    1.233254e+03
  2.590338e+01    1.229420e+03
  2.595650e+01    1.224074e+03
  2.600962e+01    1.223145e+03
  2.606273e+01    1.221475e+03
  2.611585e+01    1.222964e+03
  2.616897e+01    1.220680e+03
  2.622209e+01    1.219801e+03
  2.627521e+01    1.209997e+03
  2.632832e+01    1.205586e+03
  2.638144e+01    1.203641e+03
  2.643456e+01    1.194271e+03
  2.648768e+01    1.184530e+03
  2.654080e+01    1.175359e+03
