# == pyFAI calibration ==
# Distance Sample to Detector: 0.2946421923531691 m
# PONI: 2.875e-01, 2.439e-01 m
# Rotations: -0.010990 -0.009181 0.000003 rad
# 
# == Fit2d calibration ==
# Distance Sample-beamCenter: 294.672 mm
# Center: x=1436.809, y=1655.851 pix
# Tilt: 0.820 deg  TiltPlanRot: -39.874 deg
# 
# Detector Pilatus 2M	 PixelSize= 1.720e-04, 1.720e-04 m
#    Detector has a mask: True 
#    Detector has a dark current: False 
#    detector has a flat field: False 
# 
# Wavelength: 2.0732883349524408e-11 m
# Mask applied: from detector
# Dark current applied: False
# Flat field applied: False
# Polarization factor: None
# Normalization factor: 1.0
# --> /gpfs/current/raw/FMue_3/FMue_3_20231024_175355_00194.dat
#        q_A^-1             I 
  3.483473e-02             nan
  8.795289e-02             nan
  1.410711e-01             nan
  1.941892e-01             nan
  2.473074e-01             nan
  3.004255e-01             nan
  3.535437e-01             nan
  4.066619e-01    1.144193e+04
  4.597800e-01    1.042199e+04
  5.128982e-01    8.888145e+03
  5.660163e-01    8.113469e+03
  6.191345e-01    7.838142e+03
  6.722527e-01    7.748837e+03
  7.253708e-01    7.814408e+03
  7.784890e-01    7.871984e+03
  8.316071e-01    8.024773e+03
  8.847253e-01    8.152042e+03
  9.378435e-01    8.335324e+03
  9.909616e-01    8.557145e+03
  1.044080e+00    8.880191e+03
  1.097198e+00    9.309433e+03
  1.150316e+00    9.925262e+03
  1.203434e+00    1.062406e+04
  1.256552e+00    1.150669e+04
  1.309671e+00    1.270339e+04
  1.362789e+00    1.376892e+04
  1.415907e+00    1.422271e+04
  1.469025e+00    1.434240e+04
  1.522143e+00    1.419482e+04
  1.575261e+00    1.362274e+04
  1.628380e+00    1.289268e+04
  1.681498e+00    1.195948e+04
  1.734616e+00    1.100083e+04
  1.787734e+00    1.017005e+04
  1.840852e+00    9.467865e+03
  1.893970e+00    8.868048e+03
  1.947089e+00    8.460147e+03
  2.000207e+00    8.147756e+03
  2.053325e+00    8.054405e+03
  2.106443e+00    8.523078e+03
  2.159561e+00    9.632725e+03
  2.212679e+00    9.908292e+03
  2.265797e+00    9.330897e+03
  2.318916e+00    8.558767e+03
  2.372034e+00    7.841354e+03
  2.425152e+00    8.069957e+03
  2.478270e+00    9.535683e+03
  2.531388e+00    1.305167e+04
  2.584506e+00    1.412182e+04
  2.637625e+00    1.070186e+04
  2.690743e+00    8.474343e+03
  2.743861e+00    7.644251e+03
  2.796979e+00    6.393178e+03
  2.850097e+00    5.504535e+03
  2.903215e+00    5.205621e+03
  2.956334e+00    5.134067e+03
  3.009452e+00    5.485021e+03
  3.062570e+00    6.999196e+03
  3.115688e+00    9.277868e+03
  3.168806e+00    8.991929e+03
  3.221924e+00    7.254659e+03
  3.275043e+00    5.720362e+03
  3.328161e+00    4.874063e+03
  3.381279e+00    4.655373e+03
  3.434397e+00    4.664300e+03
  3.487515e+00    4.746515e+03
  3.540633e+00    4.670551e+03
  3.593751e+00    4.588235e+03
  3.646870e+00    4.647480e+03
  3.699988e+00    4.820995e+03
  3.753106e+00    5.144795e+03
  3.806224e+00    5.389618e+03
  3.859342e+00    5.389108e+03
  3.912460e+00    5.627397e+03
  3.965579e+00    6.502055e+03
  4.018697e+00    7.508930e+03
  4.071815e+00    7.463067e+03
  4.124933e+00    6.785587e+03
  4.178051e+00    6.352804e+03
  4.231169e+00    6.201577e+03
  4.284288e+00    6.590364e+03
  4.337406e+00    8.293028e+03
  4.390524e+00    1.052801e+04
  4.443642e+00    1.201254e+04
  4.496760e+00    1.217491e+04
  4.549878e+00    8.494193e+03
  4.602997e+00    5.896609e+03
  4.656115e+00    5.271214e+03
  4.709233e+00    5.065875e+03
  4.762351e+00    5.016559e+03
  4.815469e+00    5.078264e+03
  4.868587e+00    5.209298e+03
  4.921705e+00    5.286046e+03
  4.974824e+00    5.360170e+03
  5.027942e+00    5.522314e+03
  5.081060e+00    5.723336e+03
  5.134178e+00    5.515014e+03
  5.187296e+00    5.051341e+03
  5.240414e+00    4.668163e+03
  5.293533e+00    4.470678e+03
  5.346651e+00    4.386675e+03
  5.399769e+00    4.302720e+03
  5.452887e+00    4.266085e+03
  5.506005e+00    4.140258e+03
  5.559123e+00    3.789650e+03
  5.612242e+00    3.613675e+03
  5.665360e+00    3.574476e+03
  5.718478e+00    3.565652e+03
  5.771596e+00    3.631401e+03
  5.824714e+00    3.717721e+03
  5.877832e+00    3.892810e+03
  5.930951e+00    4.172894e+03
  5.984069e+00    4.193107e+03
  6.037187e+00    3.961101e+03
  6.090305e+00    3.781404e+03
  6.143423e+00    3.757830e+03
  6.196541e+00    3.909761e+03
  6.249660e+00    4.022952e+03
  6.302778e+00    3.885844e+03
  6.355896e+00    3.623049e+03
  6.409014e+00    3.528919e+03
  6.462132e+00    3.462174e+03
  6.515250e+00    3.424949e+03
  6.568368e+00    3.453441e+03
  6.621487e+00    3.525751e+03
  6.674605e+00    3.652208e+03
  6.727723e+00    3.700838e+03
  6.780841e+00    3.528861e+03
  6.833959e+00    3.332693e+03
  6.887077e+00    3.245628e+03
  6.940196e+00    3.224278e+03
  6.993314e+00    3.245626e+03
  7.046432e+00    3.244157e+03
  7.099550e+00    3.177413e+03
  7.152668e+00    3.114802e+03
  7.205786e+00    3.071446e+03
  7.258905e+00    3.061587e+03
  7.312023e+00    3.130098e+03
  7.365141e+00    3.232384e+03
  7.418259e+00    3.276108e+03
  7.471377e+00    3.267617e+03
  7.524495e+00    3.342700e+03
  7.577614e+00    3.494735e+03
  7.630732e+00    3.515235e+03
  7.683850e+00    3.529605e+03
  7.736968e+00    3.602378e+03
  7.790086e+00    3.508423e+03
  7.843204e+00    3.336798e+03
  7.896322e+00    3.219117e+03
  7.949441e+00    3.185135e+03
  8.002559e+00    3.196999e+03
  8.055677e+00    3.155870e+03
  8.108795e+00    3.072563e+03
  8.161913e+00    3.021783e+03
  8.215031e+00    2.977998e+03
  8.268150e+00    2.933024e+03
  8.321268e+00    2.898961e+03
  8.374386e+00    2.877021e+03
  8.427504e+00    2.859367e+03
  8.480622e+00    2.851086e+03
  8.533740e+00    2.809824e+03
  8.586859e+00    2.843088e+03
  8.639977e+00    2.830477e+03
  8.693095e+00    2.816048e+03
  8.746213e+00    2.826676e+03
  8.799331e+00    2.814994e+03
  8.852449e+00    2.790284e+03
  8.905568e+00    2.790967e+03
  8.958686e+00    2.793949e+03
  9.011804e+00    2.790158e+03
  9.064922e+00    2.748668e+03
  9.118040e+00    2.723074e+03
  9.171158e+00    2.696764e+03
  9.224276e+00    2.652830e+03
  9.277395e+00    2.600444e+03
  9.330513e+00    2.571443e+03
  9.383631e+00    2.547539e+03
  9.436749e+00    2.535735e+03
  9.489867e+00    2.552121e+03
  9.542985e+00    2.562054e+03
  9.596104e+00    2.562784e+03
  9.649222e+00    2.572011e+03
  9.702340e+00    2.559473e+03
  9.755458e+00    2.547205e+03
  9.808576e+00    2.541800e+03
  9.861694e+00    2.536990e+03
  9.914813e+00    2.523247e+03
  9.967931e+00    2.499939e+03
  1.002105e+01    2.473404e+03
  1.007417e+01    2.455759e+03
  1.012729e+01    2.436677e+03
  1.018040e+01    2.416727e+03
  1.023352e+01    2.377665e+03
  1.028664e+01    2.342655e+03
  1.033976e+01    2.330221e+03
  1.039288e+01    2.347420e+03
  1.044599e+01    2.339144e+03
  1.049911e+01    2.341397e+03
  1.055223e+01    2.334782e+03
  1.060535e+01    2.336211e+03
  1.065847e+01    2.321755e+03
  1.071158e+01    2.311517e+03
  1.076470e+01    2.300330e+03
  1.081782e+01    2.299253e+03
  1.087094e+01    2.291265e+03
  1.092406e+01    2.305949e+03
  1.097718e+01    2.311848e+03
  1.103029e+01    2.311359e+03
  1.108341e+01    2.299855e+03
  1.113653e+01    2.277637e+03
  1.118965e+01    2.255501e+03
  1.124277e+01    2.243498e+03
  1.129588e+01    2.237296e+03
  1.134900e+01    2.234217e+03
  1.140212e+01    2.241434e+03
  1.145524e+01    2.243489e+03
  1.150836e+01    2.252284e+03
  1.156148e+01    2.250204e+03
  1.161459e+01    2.251478e+03
  1.166771e+01    2.233022e+03
  1.172083e+01    2.231381e+03
  1.177395e+01    2.212857e+03
  1.182707e+01    2.205955e+03
  1.188018e+01    2.208947e+03
  1.193330e+01    2.192285e+03
  1.198642e+01    2.172120e+03
  1.203954e+01    2.152926e+03
  1.209266e+01    2.149407e+03
  1.214578e+01    2.143019e+03
  1.219889e+01    2.150610e+03
  1.225201e+01    2.153218e+03
  1.230513e+01    2.144655e+03
  1.235825e+01    2.139910e+03
  1.241137e+01    2.124946e+03
  1.246448e+01    2.121316e+03
  1.251760e+01    2.117667e+03
  1.257072e+01    2.112931e+03
  1.262384e+01    2.123408e+03
  1.267696e+01    2.105855e+03
  1.273008e+01    2.091885e+03
  1.278319e+01    2.080696e+03
  1.283631e+01    2.069860e+03
  1.288943e+01    2.063361e+03
  1.294255e+01    2.053354e+03
  1.299567e+01    2.050784e+03
  1.304878e+01    2.043755e+03
  1.310190e+01    2.041536e+03
  1.315502e+01    2.037356e+03
  1.320814e+01    2.015323e+03
  1.326126e+01    1.992624e+03
  1.331437e+01    1.984642e+03
  1.336749e+01    1.977733e+03
  1.342061e+01    1.965184e+03
  1.347373e+01    1.986615e+03
  1.352685e+01    1.982044e+03
  1.357997e+01    1.969421e+03
  1.363308e+01    1.959136e+03
  1.368620e+01    1.953841e+03
  1.373932e+01    1.947979e+03
  1.379244e+01    1.942058e+03
  1.384556e+01    1.934221e+03
  1.389867e+01    1.925774e+03
  1.395179e+01    1.915073e+03
  1.400491e+01    1.914060e+03
  1.405803e+01    1.911411e+03
  1.411115e+01    1.903767e+03
  1.416427e+01    1.892836e+03
  1.421738e+01    1.888745e+03
  1.427050e+01    1.879350e+03
  1.432362e+01    1.882852e+03
  1.437674e+01    1.878292e+03
  1.442986e+01    1.867358e+03
  1.448297e+01    1.860874e+03
  1.453609e+01    1.854930e+03
  1.458921e+01    1.844601e+03
  1.464233e+01    1.839609e+03
  1.469545e+01    1.835186e+03
  1.474857e+01    1.817071e+03
  1.480168e+01    1.825978e+03
  1.485480e+01    1.822035e+03
  1.490792e+01    1.816810e+03
  1.496104e+01    1.809390e+03
  1.501416e+01    1.807337e+03
  1.506727e+01    1.803458e+03
  1.512039e+01    1.801791e+03
  1.517351e+01    1.813631e+03
  1.522663e+01    1.826928e+03
  1.527975e+01    1.824035e+03
  1.533286e+01    1.808597e+03
  1.538598e+01    1.799736e+03
  1.543910e+01    1.792804e+03
  1.549222e+01    1.787985e+03
  1.554534e+01    1.785436e+03
  1.559846e+01    1.783339e+03
  1.565157e+01    1.776033e+03
  1.570469e+01    1.770827e+03
  1.575781e+01    1.768855e+03
  1.581093e+01    1.765240e+03
  1.586405e+01    1.762975e+03
  1.591716e+01    1.756828e+03
  1.597028e+01    1.750384e+03
  1.602340e+01    1.735462e+03
  1.607652e+01    1.725002e+03
  1.612964e+01    1.700495e+03
  1.618276e+01    1.687980e+03
  1.623587e+01    1.690729e+03
  1.628899e+01    1.706774e+03
  1.634211e+01    1.705337e+03
  1.639523e+01    1.700056e+03
  1.644835e+01    1.701041e+03
  1.650146e+01    1.695131e+03
  1.655458e+01    1.693734e+03
  1.660770e+01    1.690012e+03
  1.666082e+01    1.683600e+03
  1.671394e+01    1.681923e+03
  1.676706e+01    1.679777e+03
  1.682017e+01    1.690548e+03
  1.687329e+01    1.679802e+03
  1.692641e+01    1.674156e+03
  1.697953e+01    1.669937e+03
  1.703265e+01    1.666122e+03
  1.708576e+01    1.663219e+03
  1.713888e+01    1.656599e+03
  1.719200e+01    1.653896e+03
  1.724512e+01    1.646760e+03
  1.729824e+01    1.646771e+03
  1.735136e+01    1.640324e+03
  1.740447e+01    1.617884e+03
  1.745759e+01    1.626803e+03
  1.751071e+01    1.628024e+03
  1.756383e+01    1.638842e+03
  1.761695e+01    1.623113e+03
  1.767006e+01    1.620313e+03
  1.772318e+01    1.612884e+03
  1.777630e+01    1.610286e+03
  1.782942e+01    1.602292e+03
  1.788254e+01    1.598291e+03
  1.793565e+01    1.595737e+03
  1.798877e+01    1.591556e+03
  1.804189e+01    1.586047e+03
  1.809501e+01    1.581392e+03
  1.814813e+01    1.578925e+03
  1.820125e+01    1.573390e+03
  1.825436e+01    1.579046e+03
  1.830748e+01    1.571234e+03
  1.836060e+01    1.568552e+03
  1.841372e+01    1.565441e+03
  1.846684e+01    1.560445e+03
  1.851995e+01    1.541456e+03
  1.857307e+01    1.528519e+03
  1.862619e+01    1.517108e+03
  1.867931e+01    1.516268e+03
  1.873243e+01    1.534063e+03
  1.878555e+01    1.535267e+03
  1.883866e+01    1.534058e+03
  1.889178e+01    1.534387e+03
  1.894490e+01    1.545782e+03
  1.899802e+01    1.536133e+03
  1.905114e+01    1.530791e+03
  1.910425e+01    1.526482e+03
  1.915737e+01    1.521262e+03
  1.921049e+01    1.517765e+03
  1.926361e+01    1.515684e+03
  1.931673e+01    1.510194e+03
  1.936985e+01    1.509540e+03
  1.942296e+01    1.507139e+03
  1.947608e+01    1.505844e+03
  1.952920e+01    1.502230e+03
  1.958232e+01    1.504018e+03
  1.963544e+01    1.507520e+03
  1.968855e+01    1.492406e+03
  1.974167e+01    1.481710e+03
  1.979479e+01    1.486403e+03
  1.984791e+01    1.484580e+03
  1.990103e+01    1.483466e+03
  1.995414e+01    1.480659e+03
  2.000726e+01    1.478367e+03
  2.006038e+01    1.474114e+03
  2.011350e+01    1.470133e+03
  2.016662e+01    1.464443e+03
  2.021974e+01    1.466613e+03
  2.027285e+01    1.471885e+03
  2.032597e+01    1.456844e+03
  2.037909e+01    1.453271e+03
  2.043221e+01    1.448298e+03
  2.048533e+01    1.445608e+03
  2.053844e+01    1.445533e+03
  2.059156e+01    1.440614e+03
  2.064468e+01    1.436774e+03
  2.069780e+01    1.417681e+03
  2.075092e+01    1.394747e+03
  2.080404e+01    1.379890e+03
  2.085715e+01    1.399481e+03
  2.091027e+01    1.426179e+03
  2.096339e+01    1.431866e+03
  2.101651e+01    1.437562e+03
  2.106963e+01    1.442055e+03
  2.112274e+01    1.445237e+03
  2.117586e+01    1.445895e+03
  2.122898e+01    1.449097e+03
  2.128210e+01    1.446769e+03
  2.133522e+01    1.446335e+03
  2.138834e+01    1.444588e+03
  2.144145e+01    1.444250e+03
  2.149457e+01    1.445257e+03
  2.154769e+01    1.444912e+03
  2.160081e+01    1.441830e+03
  2.165393e+01    1.445117e+03
  2.170704e+01    1.444527e+03
  2.176016e+01    1.433823e+03
  2.181328e+01    1.441759e+03
  2.186640e+01    1.444091e+03
  2.191952e+01    1.441763e+03
  2.197263e+01    1.439761e+03
  2.202575e+01    1.438148e+03
  2.207887e+01    1.437140e+03
  2.213199e+01    1.435442e+03
  2.218511e+01    1.434834e+03
  2.223823e+01    1.435841e+03
  2.229134e+01    1.432825e+03
  2.234446e+01    1.433728e+03
  2.239758e+01    1.430949e+03
  2.245070e+01    1.428426e+03
  2.250382e+01    1.430291e+03
  2.255693e+01    1.426986e+03
  2.261005e+01    1.408696e+03
  2.266317e+01    1.396237e+03
  2.271629e+01    1.387111e+03
  2.276941e+01    1.378313e+03
  2.282253e+01    1.371679e+03
  2.287564e+01    1.367097e+03
  2.292876e+01    1.362464e+03
  2.298188e+01    1.358361e+03
  2.303500e+01    1.357876e+03
  2.308812e+01    1.354303e+03
  2.314123e+01    1.353916e+03
  2.319435e+01    1.347136e+03
  2.324747e+01    1.341115e+03
  2.330059e+01    1.336535e+03
  2.335371e+01    1.335113e+03
  2.340683e+01    1.331044e+03
  2.345994e+01    1.326470e+03
  2.351306e+01    1.323878e+03
  2.356618e+01    1.318236e+03
  2.361930e+01    1.314562e+03
  2.367242e+01    1.309303e+03
  2.372553e+01    1.302863e+03
  2.377865e+01    1.297419e+03
  2.383177e+01    1.292724e+03
  2.388489e+01    1.287921e+03
  2.393801e+01    1.285723e+03
  2.399113e+01    1.283058e+03
  2.404424e+01    1.284712e+03
  2.409736e+01    1.282792e+03
  2.415048e+01    1.277873e+03
  2.420360e+01    1.275800e+03
  2.425672e+01    1.272489e+03
  2.430983e+01    1.267776e+03
  2.436295e+01    1.267226e+03
  2.441607e+01    1.264256e+03
  2.446919e+01    1.261735e+03
  2.452231e+01    1.262893e+03
  2.457542e+01    1.257873e+03
  2.462854e+01    1.254872e+03
  2.468166e+01    1.254356e+03
  2.473478e+01    1.249989e+03
  2.478790e+01    1.244526e+03
  2.484102e+01    1.240526e+03
  2.489413e+01    1.234172e+03
  2.494725e+01    1.230032e+03
  2.500037e+01    1.227821e+03
  2.505349e+01    1.221424e+03
  2.510661e+01    1.217249e+03
  2.515972e+01    1.214587e+03
  2.521284e+01    1.214929e+03
  2.526596e+01    1.211803e+03
  2.531908e+01    1.208686e+03
  2.537220e+01    1.207167e+03
  2.542532e+01    1.204591e+03
  2.547843e+01    1.199524e+03
  2.553155e+01    1.198969e+03
  2.558467e+01    1.192908e+03
  2.563779e+01    1.183023e+03
  2.569091e+01    1.182355e+03
  2.574402e+01    1.167708e+03
  2.579714e+01    1.166369e+03
  2.585026e+01    1.153578e+03
  2.590338e+01    1.147507e+03
  2.595650e+01    1.147724e+03
  2.600962e+01    1.145910e+03
  2.606273e+01    1.147374e+03
  2.611585e+01    1.145595e+03
  2.616897e+01    1.142062e+03
  2.622209e+01    1.139870e+03
  2.627521e+01    1.140500e+03
  2.632832e+01    1.130123e+03
  2.638144e+01    1.126228e+03
  2.643456e+01    1.121548e+03
  2.648768e+01    1.113854e+03
  2.654080e+01    1.083888e+03
