# == pyFAI calibration ==
# Distance Sample to Detector: 0.2946421923531691 m
# PONI: 2.875e-01, 2.439e-01 m
# Rotations: -0.010990 -0.009181 0.000003 rad
# 
# == Fit2d calibration ==
# Distance Sample-beamCenter: 294.672 mm
# Center: x=1436.809, y=1655.851 pix
# Tilt: 0.820 deg  TiltPlanRot: -39.874 deg
# 
# Detector Pilatus 2M	 PixelSize= 1.720e-04, 1.720e-04 m
#    Detector has a mask: True 
#    Detector has a dark current: False 
#    detector has a flat field: False 
# 
# Wavelength: 2.0732883349524408e-11 m
# Mask applied: from detector
# Dark current applied: False
# Flat field applied: False
# Polarization factor: None
# Normalization factor: 1.0
# --> /gpfs/current/raw/FMue_3/FMue_3_20231024_175355_00182.dat
#        q_A^-1             I 
  3.483473e-02             nan
  8.795289e-02             nan
  1.410711e-01             nan
  1.941892e-01             nan
  2.473074e-01             nan
  3.004255e-01             nan
  3.535437e-01             nan
  4.066619e-01    1.135877e+04
  4.597800e-01    1.046720e+04
  5.128982e-01    8.923545e+03
  5.660163e-01    8.132474e+03
  6.191345e-01    7.849576e+03
  6.722527e-01    7.750902e+03
  7.253708e-01    7.809898e+03
  7.784890e-01    7.852259e+03
  8.316071e-01    8.014696e+03
  8.847253e-01    8.149186e+03
  9.378435e-01    8.329411e+03
  9.909616e-01    8.540924e+03
  1.044080e+00    8.852239e+03
  1.097198e+00    9.290938e+03
  1.150316e+00    9.897902e+03
  1.203434e+00    1.060207e+04
  1.256552e+00    1.149408e+04
  1.309671e+00    1.264831e+04
  1.362789e+00    1.373626e+04
  1.415907e+00    1.419020e+04
  1.469025e+00    1.429686e+04
  1.522143e+00    1.417179e+04
  1.575261e+00    1.359388e+04
  1.628380e+00    1.285454e+04
  1.681498e+00    1.192422e+04
  1.734616e+00    1.097906e+04
  1.787734e+00    1.014385e+04
  1.840852e+00    9.435582e+03
  1.893970e+00    8.847138e+03
  1.947089e+00    8.434829e+03
  2.000207e+00    8.133357e+03
  2.053325e+00    8.036056e+03
  2.106443e+00    8.494083e+03
  2.159561e+00    9.556526e+03
  2.212679e+00    9.822901e+03
  2.265797e+00    9.301513e+03
  2.318916e+00    8.532977e+03
  2.372034e+00    7.833207e+03
  2.425152e+00    8.066767e+03
  2.478270e+00    9.523683e+03
  2.531388e+00    1.289652e+04
  2.584506e+00    1.394189e+04
  2.637625e+00    1.066816e+04
  2.690743e+00    8.468139e+03
  2.743861e+00    7.631325e+03
  2.796979e+00    6.375573e+03
  2.850097e+00    5.498879e+03
  2.903215e+00    5.198210e+03
  2.956334e+00    5.134522e+03
  3.009452e+00    5.474265e+03
  3.062570e+00    6.965681e+03
  3.115688e+00    9.243570e+03
  3.168806e+00    8.987579e+03
  3.221924e+00    7.239896e+03
  3.275043e+00    5.713727e+03
  3.328161e+00    4.870115e+03
  3.381279e+00    4.647610e+03
  3.434397e+00    4.647496e+03
  3.487515e+00    4.733647e+03
  3.540633e+00    4.656870e+03
  3.593751e+00    4.579041e+03
  3.646870e+00    4.640000e+03
  3.699988e+00    4.809282e+03
  3.753106e+00    5.124149e+03
  3.806224e+00    5.358657e+03
  3.859342e+00    5.374336e+03
  3.912460e+00    5.616736e+03
  3.965579e+00    6.457180e+03
  4.018697e+00    7.422166e+03
  4.071815e+00    7.407575e+03
  4.124933e+00    6.779947e+03
  4.178051e+00    6.342821e+03
  4.231169e+00    6.191846e+03
  4.284288e+00    6.578802e+03
  4.337406e+00    8.228127e+03
  4.390524e+00    1.042670e+04
  4.443642e+00    1.196686e+04
  4.496760e+00    1.213839e+04
  4.549878e+00    8.481890e+03
  4.602997e+00    5.884904e+03
  4.656115e+00    5.257218e+03
  4.709233e+00    5.051917e+03
  4.762351e+00    5.005718e+03
  4.815469e+00    5.061097e+03
  4.868587e+00    5.191624e+03
  4.921705e+00    5.261262e+03
  4.974824e+00    5.340291e+03
  5.027942e+00    5.495559e+03
  5.081060e+00    5.689511e+03
  5.134178e+00    5.484285e+03
  5.187296e+00    5.038691e+03
  5.240414e+00    4.660042e+03
  5.293533e+00    4.458597e+03
  5.346651e+00    4.373706e+03
  5.399769e+00    4.288465e+03
  5.452887e+00    4.256033e+03
  5.506005e+00    4.129176e+03
  5.559123e+00    3.776023e+03
  5.612242e+00    3.600732e+03
  5.665360e+00    3.564899e+03
  5.718478e+00    3.555167e+03
  5.771596e+00    3.608724e+03
  5.824714e+00    3.698084e+03
  5.877832e+00    3.873414e+03
  5.930951e+00    4.139180e+03
  5.984069e+00    4.161004e+03
  6.037187e+00    3.945576e+03
  6.090305e+00    3.770735e+03
  6.143423e+00    3.743485e+03
  6.196541e+00    3.890966e+03
  6.249660e+00    4.008211e+03
  6.302778e+00    3.876353e+03
  6.355896e+00    3.614522e+03
  6.409014e+00    3.519083e+03
  6.462132e+00    3.451694e+03
  6.515250e+00    3.413415e+03
  6.568368e+00    3.441574e+03
  6.621487e+00    3.510038e+03
  6.674605e+00    3.627369e+03
  6.727723e+00    3.677548e+03
  6.780841e+00    3.515063e+03
  6.833959e+00    3.328452e+03
  6.887077e+00    3.238568e+03
  6.940196e+00    3.210748e+03
  6.993314e+00    3.235764e+03
  7.046432e+00    3.239420e+03
  7.099550e+00    3.167346e+03
  7.152668e+00    3.106060e+03
  7.205786e+00    3.062934e+03
  7.258905e+00    3.051633e+03
  7.312023e+00    3.115408e+03
  7.365141e+00    3.216843e+03
  7.418259e+00    3.261181e+03
  7.471377e+00    3.256683e+03
  7.524495e+00    3.327255e+03
  7.577614e+00    3.474021e+03
  7.630732e+00    3.498393e+03
  7.683850e+00    3.519724e+03
  7.736968e+00    3.590089e+03
  7.790086e+00    3.493157e+03
  7.843204e+00    3.324113e+03
  7.896322e+00    3.202316e+03
  7.949441e+00    3.167340e+03
  8.002559e+00    3.177063e+03
  8.055677e+00    3.139387e+03
  8.108795e+00    3.064789e+03
  8.161913e+00    3.012980e+03
  8.215031e+00    2.967465e+03
  8.268150e+00    2.922815e+03
  8.321268e+00    2.889860e+03
  8.374386e+00    2.868010e+03
  8.427504e+00    2.852209e+03
  8.480622e+00    2.841162e+03
  8.533740e+00    2.802212e+03
  8.586859e+00    2.831169e+03
  8.639977e+00    2.819451e+03
  8.693095e+00    2.806603e+03
  8.746213e+00    2.818347e+03
  8.799331e+00    2.802707e+03
  8.852449e+00    2.779322e+03
  8.905568e+00    2.781017e+03
  8.958686e+00    2.783072e+03
  9.011804e+00    2.778192e+03
  9.064922e+00    2.734786e+03
  9.118040e+00    2.710642e+03
  9.171158e+00    2.683722e+03
  9.224276e+00    2.642159e+03
  9.277395e+00    2.593410e+03
  9.330513e+00    2.562543e+03
  9.383631e+00    2.539327e+03
  9.436749e+00    2.527079e+03
  9.489867e+00    2.542471e+03
  9.542985e+00    2.551361e+03
  9.596104e+00    2.552438e+03
  9.649222e+00    2.558856e+03
  9.702340e+00    2.548541e+03
  9.755458e+00    2.534553e+03
  9.808576e+00    2.529693e+03
  9.861694e+00    2.524400e+03
  9.914813e+00    2.513369e+03
  9.967931e+00    2.490645e+03
  1.002105e+01    2.464038e+03
  1.007417e+01    2.446047e+03
  1.012729e+01    2.427387e+03
  1.018040e+01    2.406470e+03
  1.023352e+01    2.369281e+03
  1.028664e+01    2.334556e+03
  1.033976e+01    2.319875e+03
  1.039288e+01    2.339063e+03
  1.044599e+01    2.329920e+03
  1.049911e+01    2.331469e+03
  1.055223e+01    2.324384e+03
  1.060535e+01    2.325605e+03
  1.065847e+01    2.312981e+03
  1.071158e+01    2.302819e+03
  1.076470e+01    2.294255e+03
  1.081782e+01    2.290903e+03
  1.087094e+01    2.281872e+03
  1.092406e+01    2.295588e+03
  1.097718e+01    2.302411e+03
  1.103029e+01    2.300592e+03
  1.108341e+01    2.290614e+03
  1.113653e+01    2.269323e+03
  1.118965e+01    2.247566e+03
  1.124277e+01    2.235246e+03
  1.129588e+01    2.231319e+03
  1.134900e+01    2.224468e+03
  1.140212e+01    2.234111e+03
  1.145524e+01    2.232784e+03
  1.150836e+01    2.244036e+03
  1.156148e+01    2.242887e+03
  1.161459e+01    2.244459e+03
  1.166771e+01    2.223401e+03
  1.172083e+01    2.222407e+03
  1.177395e+01    2.205590e+03
  1.182707e+01    2.194958e+03
  1.188018e+01    2.199631e+03
  1.193330e+01    2.184881e+03
  1.198642e+01    2.163335e+03
  1.203954e+01    2.144650e+03
  1.209266e+01    2.141618e+03
  1.214578e+01    2.136873e+03
  1.219889e+01    2.144921e+03
  1.225201e+01    2.144928e+03
  1.230513e+01    2.136386e+03
  1.235825e+01    2.134022e+03
  1.241137e+01    2.117321e+03
  1.246448e+01    2.113351e+03
  1.251760e+01    2.110878e+03
  1.257072e+01    2.105089e+03
  1.262384e+01    2.111224e+03
  1.267696e+01    2.100680e+03
  1.273008e+01    2.083155e+03
  1.278319e+01    2.074215e+03
  1.283631e+01    2.062685e+03
  1.288943e+01    2.056029e+03
  1.294255e+01    2.046717e+03
  1.299567e+01    2.041247e+03
  1.304878e+01    2.036948e+03
  1.310190e+01    2.034807e+03
  1.315502e+01    2.029781e+03
  1.320814e+01    2.007349e+03
  1.326126e+01    1.983374e+03
  1.331437e+01    1.975193e+03
  1.336749e+01    1.970658e+03
  1.342061e+01    1.959804e+03
  1.347373e+01    1.976985e+03
  1.352685e+01    1.974545e+03
  1.357997e+01    1.961818e+03
  1.363308e+01    1.951637e+03
  1.368620e+01    1.947676e+03
  1.373932e+01    1.940041e+03
  1.379244e+01    1.933298e+03
  1.384556e+01    1.926890e+03
  1.389867e+01    1.917830e+03
  1.395179e+01    1.908420e+03
  1.400491e+01    1.906472e+03
  1.405803e+01    1.903649e+03
  1.411115e+01    1.897288e+03
  1.416427e+01    1.885868e+03
  1.421738e+01    1.881242e+03
  1.427050e+01    1.872790e+03
  1.432362e+01    1.875535e+03
  1.437674e+01    1.873180e+03
  1.442986e+01    1.859900e+03
  1.448297e+01    1.854609e+03
  1.453609e+01    1.848080e+03
  1.458921e+01    1.837651e+03
  1.464233e+01    1.833869e+03
  1.469545e+01    1.829246e+03
  1.474857e+01    1.809080e+03
  1.480168e+01    1.819793e+03
  1.485480e+01    1.815357e+03
  1.490792e+01    1.810791e+03
  1.496104e+01    1.802497e+03
  1.501416e+01    1.801294e+03
  1.506727e+01    1.796835e+03
  1.512039e+01    1.794120e+03
  1.517351e+01    1.806358e+03
  1.522663e+01    1.819346e+03
  1.527975e+01    1.816598e+03
  1.533286e+01    1.803715e+03
  1.538598e+01    1.792945e+03
  1.543910e+01    1.785351e+03
  1.549222e+01    1.780895e+03
  1.554534e+01    1.778933e+03
  1.559846e+01    1.776019e+03
  1.565157e+01    1.770151e+03
  1.570469e+01    1.765076e+03
  1.575781e+01    1.761924e+03
  1.581093e+01    1.758473e+03
  1.586405e+01    1.756235e+03
  1.591716e+01    1.750021e+03
  1.597028e+01    1.743002e+03
  1.602340e+01    1.728761e+03
  1.607652e+01    1.717831e+03
  1.612964e+01    1.694726e+03
  1.618276e+01    1.682518e+03
  1.623587e+01    1.683880e+03
  1.628899e+01    1.700437e+03
  1.634211e+01    1.698528e+03
  1.639523e+01    1.693080e+03
  1.644835e+01    1.693919e+03
  1.650146e+01    1.687700e+03
  1.655458e+01    1.686797e+03
  1.660770e+01    1.683884e+03
  1.666082e+01    1.677715e+03
  1.671394e+01    1.677503e+03
  1.676706e+01    1.672586e+03
  1.682017e+01    1.683188e+03
  1.687329e+01    1.672914e+03
  1.692641e+01    1.667831e+03
  1.697953e+01    1.663241e+03
  1.703265e+01    1.658509e+03
  1.708576e+01    1.656238e+03
  1.713888e+01    1.648664e+03
  1.719200e+01    1.648021e+03
  1.724512e+01    1.641199e+03
  1.729824e+01    1.639979e+03
  1.735136e+01    1.635005e+03
  1.740447e+01    1.611722e+03
  1.745759e+01    1.619558e+03
  1.751071e+01    1.621828e+03
  1.756383e+01    1.632547e+03
  1.761695e+01    1.616287e+03
  1.767006e+01    1.614343e+03
  1.772318e+01    1.604922e+03
  1.777630e+01    1.603797e+03
  1.782942e+01    1.594368e+03
  1.788254e+01    1.592823e+03
  1.793565e+01    1.589047e+03
  1.798877e+01    1.587853e+03
  1.804189e+01    1.581020e+03
  1.809501e+01    1.576041e+03
  1.814813e+01    1.572764e+03
  1.820125e+01    1.567415e+03
  1.825436e+01    1.572624e+03
  1.830748e+01    1.566365e+03
  1.836060e+01    1.562252e+03
  1.841372e+01    1.559686e+03
  1.846684e+01    1.553791e+03
  1.851995e+01    1.536555e+03
  1.857307e+01    1.521668e+03
  1.862619e+01    1.512525e+03
  1.867931e+01    1.509079e+03
  1.873243e+01    1.528222e+03
  1.878555e+01    1.529927e+03
  1.883866e+01    1.529983e+03
  1.889178e+01    1.529336e+03
  1.894490e+01    1.538684e+03
  1.899802e+01    1.529719e+03
  1.905114e+01    1.525194e+03
  1.910425e+01    1.520663e+03
  1.915737e+01    1.515430e+03
  1.921049e+01    1.511999e+03
  1.926361e+01    1.508212e+03
  1.931673e+01    1.505775e+03
  1.936985e+01    1.503009e+03
  1.942296e+01    1.499758e+03
  1.947608e+01    1.500103e+03
  1.952920e+01    1.496619e+03
  1.958232e+01    1.496410e+03
  1.963544e+01    1.502677e+03
  1.968855e+01    1.487014e+03
  1.974167e+01    1.477329e+03
  1.979479e+01    1.479995e+03
  1.984791e+01    1.479135e+03
  1.990103e+01    1.477082e+03
  1.995414e+01    1.475281e+03
  2.000726e+01    1.471545e+03
  2.006038e+01    1.468306e+03
  2.011350e+01    1.464326e+03
  2.016662e+01    1.458483e+03
  2.021974e+01    1.462321e+03
  2.027285e+01    1.468194e+03
  2.032597e+01    1.452126e+03
  2.037909e+01    1.446506e+03
  2.043221e+01    1.443362e+03
  2.048533e+01    1.440988e+03
  2.053844e+01    1.439545e+03
  2.059156e+01    1.435402e+03
  2.064468e+01    1.432140e+03
  2.069780e+01    1.412905e+03
  2.075092e+01    1.389273e+03
  2.080404e+01    1.374056e+03
  2.085715e+01    1.394278e+03
  2.091027e+01    1.419719e+03
  2.096339e+01    1.426660e+03
  2.101651e+01    1.431545e+03
  2.106963e+01    1.436720e+03
  2.112274e+01    1.438611e+03
  2.117586e+01    1.440541e+03
  2.122898e+01    1.444149e+03
  2.128210e+01    1.439940e+03
  2.133522e+01    1.440990e+03
  2.138834e+01    1.439353e+03
  2.144145e+01    1.440009e+03
  2.149457e+01    1.440634e+03
  2.154769e+01    1.438642e+03
  2.160081e+01    1.436801e+03
  2.165393e+01    1.437888e+03
  2.170704e+01    1.439056e+03
  2.176016e+01    1.428647e+03
  2.181328e+01    1.435684e+03
  2.186640e+01    1.437157e+03
  2.191952e+01    1.436763e+03
  2.197263e+01    1.433805e+03
  2.202575e+01    1.432376e+03
  2.207887e+01    1.433177e+03
  2.213199e+01    1.429700e+03
  2.218511e+01    1.429968e+03
  2.223823e+01    1.428963e+03
  2.229134e+01    1.427932e+03
  2.234446e+01    1.425805e+03
  2.239758e+01    1.425195e+03
  2.245070e+01    1.422676e+03
  2.250382e+01    1.425763e+03
  2.255693e+01    1.421608e+03
  2.261005e+01    1.403198e+03
  2.266317e+01    1.391276e+03
  2.271629e+01    1.381970e+03
  2.276941e+01    1.373098e+03
  2.282253e+01    1.366075e+03
  2.287564e+01    1.361839e+03
  2.292876e+01    1.357247e+03
  2.298188e+01    1.354163e+03
  2.303500e+01    1.351754e+03
  2.308812e+01    1.349116e+03
  2.314123e+01    1.347824e+03
  2.319435e+01    1.342606e+03
  2.324747e+01    1.335557e+03
  2.330059e+01    1.331992e+03
  2.335371e+01    1.330425e+03
  2.340683e+01    1.325231e+03
  2.345994e+01    1.320593e+03
  2.351306e+01    1.319197e+03
  2.356618e+01    1.311523e+03
  2.361930e+01    1.309556e+03
  2.367242e+01    1.305255e+03
  2.372553e+01    1.298420e+03
  2.377865e+01    1.293530e+03
  2.383177e+01    1.286498e+03
  2.388489e+01    1.284144e+03
  2.393801e+01    1.281734e+03
  2.399113e+01    1.280849e+03
  2.404424e+01    1.277682e+03
  2.409736e+01    1.277842e+03
  2.415048e+01    1.274060e+03
  2.420360e+01    1.270250e+03
  2.425672e+01    1.266791e+03
  2.430983e+01    1.264938e+03
  2.436295e+01    1.261427e+03
  2.441607e+01    1.259070e+03
  2.446919e+01    1.257225e+03
  2.452231e+01    1.256108e+03
  2.457542e+01    1.253736e+03
  2.462854e+01    1.250050e+03
  2.468166e+01    1.249581e+03
  2.473478e+01    1.245790e+03
  2.478790e+01    1.238102e+03
  2.484102e+01    1.234411e+03
  2.489413e+01    1.229941e+03
  2.494725e+01    1.227797e+03
  2.500037e+01    1.221051e+03
  2.505349e+01    1.218774e+03
  2.510661e+01    1.211031e+03
  2.515972e+01    1.210761e+03
  2.521284e+01    1.208280e+03
  2.526596e+01    1.207971e+03
  2.531908e+01    1.202983e+03
  2.537220e+01    1.202201e+03
  2.542532e+01    1.197591e+03
  2.547843e+01    1.195950e+03
  2.553155e+01    1.192996e+03
  2.558467e+01    1.187106e+03
  2.563779e+01    1.178522e+03
  2.569091e+01    1.174589e+03
  2.574402e+01    1.165585e+03
  2.579714e+01    1.156977e+03
  2.585026e+01    1.153232e+03
  2.590338e+01    1.146708e+03
  2.595650e+01    1.141476e+03
  2.600962e+01    1.142542e+03
  2.606273e+01    1.139486e+03
  2.611585e+01    1.135805e+03
  2.616897e+01    1.138786e+03
  2.622209e+01    1.139750e+03
  2.627521e+01    1.135006e+03
  2.632832e+01    1.123761e+03
  2.638144e+01    1.126418e+03
  2.643456e+01    1.119699e+03
  2.648768e+01    1.113444e+03
  2.654080e+01    1.094084e+03
