# == pyFAI calibration ==
# Distance Sample to Detector: 0.2946421923531691 m
# PONI: 2.875e-01, 2.439e-01 m
# Rotations: -0.010990 -0.009181 0.000003 rad
# 
# == Fit2d calibration ==
# Distance Sample-beamCenter: 294.672 mm
# Center: x=1436.809, y=1655.851 pix
# Tilt: 0.820 deg  TiltPlanRot: -39.874 deg
# 
# Detector Pilatus 2M	 PixelSize= 1.720e-04, 1.720e-04 m
#    Detector has a mask: True 
#    Detector has a dark current: False 
#    detector has a flat field: False 
# 
# Wavelength: 2.0732883349524408e-11 m
# Mask applied: from detector
# Dark current applied: False
# Flat field applied: False
# Polarization factor: None
# Normalization factor: 1.0
# --> /gpfs/current/raw/FMue_3/FMue_3_20231024_175355_00163.dat
#        q_A^-1             I 
  3.483473e-02             nan
  8.795289e-02             nan
  1.410711e-01             nan
  1.941892e-01             nan
  2.473074e-01             nan
  3.004255e-01             nan
  3.535437e-01             nan
  4.066619e-01    1.184139e+04
  4.597800e-01    1.085695e+04
  5.128982e-01    9.196751e+03
  5.660163e-01    8.328378e+03
  6.191345e-01    8.000125e+03
  6.722527e-01    7.869999e+03
  7.253708e-01    7.904498e+03
  7.784890e-01    7.949012e+03
  8.316071e-01    8.096447e+03
  8.847253e-01    8.208692e+03
  9.378435e-01    8.381239e+03
  9.909616e-01    8.600029e+03
  1.044080e+00    8.906952e+03
  1.097198e+00    9.329475e+03
  1.150316e+00    9.934776e+03
  1.203434e+00    1.065418e+04
  1.256552e+00    1.155932e+04
  1.309671e+00    1.270523e+04
  1.362789e+00    1.378881e+04
  1.415907e+00    1.425349e+04
  1.469025e+00    1.435683e+04
  1.522143e+00    1.420507e+04
  1.575261e+00    1.362573e+04
  1.628380e+00    1.289363e+04
  1.681498e+00    1.196960e+04
  1.734616e+00    1.101181e+04
  1.787734e+00    1.018443e+04
  1.840852e+00    9.472223e+03
  1.893970e+00    8.883562e+03
  1.947089e+00    8.477096e+03
  2.000207e+00    8.175434e+03
  2.053325e+00    8.085055e+03
  2.106443e+00    8.504603e+03
  2.159561e+00    9.403163e+03
  2.212679e+00    9.677820e+03
  2.265797e+00    9.316910e+03
  2.318916e+00    8.603840e+03
  2.372034e+00    7.903115e+03
  2.425152e+00    8.157086e+03
  2.478270e+00    9.564553e+03
  2.531388e+00    1.255498e+04
  2.584506e+00    1.354690e+04
  2.637625e+00    1.071288e+04
  2.690743e+00    8.573341e+03
  2.743861e+00    7.708146e+03
  2.796979e+00    6.431971e+03
  2.850097e+00    5.538912e+03
  2.903215e+00    5.234143e+03
  2.956334e+00    5.179667e+03
  3.009452e+00    5.518526e+03
  3.062570e+00    6.955613e+03
  3.115688e+00    9.249928e+03
  3.168806e+00    9.080102e+03
  3.221924e+00    7.319944e+03
  3.275043e+00    5.768266e+03
  3.328161e+00    4.900988e+03
  3.381279e+00    4.666811e+03
  3.434397e+00    4.670164e+03
  3.487515e+00    4.752195e+03
  3.540633e+00    4.678202e+03
  3.593751e+00    4.596281e+03
  3.646870e+00    4.659871e+03
  3.699988e+00    4.817438e+03
  3.753106e+00    5.087410e+03
  3.806224e+00    5.321572e+03
  3.859342e+00    5.386937e+03
  3.912460e+00    5.644156e+03
  3.965579e+00    6.390199e+03
  4.018697e+00    7.243418e+03
  4.071815e+00    7.351570e+03
  4.124933e+00    6.830916e+03
  4.178051e+00    6.392795e+03
  4.231169e+00    6.240448e+03
  4.284288e+00    6.597007e+03
  4.337406e+00    8.096570e+03
  4.390524e+00    1.022356e+04
  4.443642e+00    1.199259e+04
  4.496760e+00    1.226848e+04
  4.549878e+00    8.582763e+03
  4.602997e+00    5.929532e+03
  4.656115e+00    5.284770e+03
  4.709233e+00    5.069199e+03
  4.762351e+00    5.020294e+03
  4.815469e+00    5.065710e+03
  4.868587e+00    5.180600e+03
  4.921705e+00    5.259847e+03
  4.974824e+00    5.352966e+03
  5.027942e+00    5.476507e+03
  5.081060e+00    5.643223e+03
  5.134178e+00    5.474689e+03
  5.187296e+00    5.066628e+03
  5.240414e+00    4.687162e+03
  5.293533e+00    4.476459e+03
  5.346651e+00    4.377507e+03
  5.399769e+00    4.299178e+03
  5.452887e+00    4.274687e+03
  5.506005e+00    4.149605e+03
  5.559123e+00    3.795103e+03
  5.612242e+00    3.612706e+03
  5.665360e+00    3.571865e+03
  5.718478e+00    3.555021e+03
  5.771596e+00    3.594803e+03
  5.824714e+00    3.682997e+03
  5.877832e+00    3.852240e+03
  5.930951e+00    4.081169e+03
  5.984069e+00    4.133852e+03
  6.037187e+00    3.964155e+03
  6.090305e+00    3.789425e+03
  6.143423e+00    3.741909e+03
  6.196541e+00    3.877453e+03
  6.249660e+00    4.010583e+03
  6.302778e+00    3.891948e+03
  6.355896e+00    3.629029e+03
  6.409014e+00    3.527527e+03
  6.462132e+00    3.464300e+03
  6.515250e+00    3.417172e+03
  6.568368e+00    3.440021e+03
  6.621487e+00    3.501973e+03
  6.674605e+00    3.601718e+03
  6.727723e+00    3.655484e+03
  6.780841e+00    3.517441e+03
  6.833959e+00    3.346799e+03
  6.887077e+00    3.249367e+03
  6.940196e+00    3.213498e+03
  6.993314e+00    3.249040e+03
  7.046432e+00    3.250651e+03
  7.099550e+00    3.179038e+03
  7.152668e+00    3.113214e+03
  7.205786e+00    3.069169e+03
  7.258905e+00    3.054110e+03
  7.312023e+00    3.108438e+03
  7.365141e+00    3.200474e+03
  7.418259e+00    3.253179e+03
  7.471377e+00    3.260180e+03
  7.524495e+00    3.320569e+03
  7.577614e+00    3.445931e+03
  7.630732e+00    3.494120e+03
  7.683850e+00    3.537614e+03
  7.736968e+00    3.610759e+03
  7.790086e+00    3.512193e+03
  7.843204e+00    3.335028e+03
  7.896322e+00    3.200090e+03
  7.949441e+00    3.158388e+03
  8.002559e+00    3.161853e+03
  8.055677e+00    3.130089e+03
  8.108795e+00    3.068702e+03
  8.161913e+00    3.020631e+03
  8.215031e+00    2.973501e+03
  8.268150e+00    2.927267e+03
  8.321268e+00    2.890965e+03
  8.374386e+00    2.869901e+03
  8.427504e+00    2.850941e+03
  8.480622e+00    2.840055e+03
  8.533740e+00    2.794859e+03
  8.586859e+00    2.828518e+03
  8.639977e+00    2.819040e+03
  8.693095e+00    2.805298e+03
  8.746213e+00    2.813751e+03
  8.799331e+00    2.802989e+03
  8.852449e+00    2.785335e+03
  8.905568e+00    2.788519e+03
  8.958686e+00    2.786643e+03
  9.011804e+00    2.779137e+03
  9.064922e+00    2.733684e+03
  9.118040e+00    2.700764e+03
  9.171158e+00    2.679994e+03
  9.224276e+00    2.643596e+03
  9.277395e+00    2.596268e+03
  9.330513e+00    2.566307e+03
  9.383631e+00    2.541969e+03
  9.436749e+00    2.529066e+03
  9.489867e+00    2.543237e+03
  9.542985e+00    2.550555e+03
  9.596104e+00    2.547125e+03
  9.649222e+00    2.554809e+03
  9.702340e+00    2.545652e+03
  9.755458e+00    2.533029e+03
  9.808576e+00    2.529779e+03
  9.861694e+00    2.528857e+03
  9.914813e+00    2.516026e+03
  9.967931e+00    2.494401e+03
  1.002105e+01    2.462669e+03
  1.007417e+01    2.441509e+03
  1.012729e+01    2.422498e+03
  1.018040e+01    2.405408e+03
  1.023352e+01    2.372011e+03
  1.028664e+01    2.336342e+03
  1.033976e+01    2.322579e+03
  1.039288e+01    2.343155e+03
  1.044599e+01    2.332925e+03
  1.049911e+01    2.333611e+03
  1.055223e+01    2.320904e+03
  1.060535e+01    2.324421e+03
  1.065847e+01    2.313356e+03
  1.071158e+01    2.303015e+03
  1.076470e+01    2.294523e+03
  1.081782e+01    2.293030e+03
  1.087094e+01    2.283162e+03
  1.092406e+01    2.293648e+03
  1.097718e+01    2.298688e+03
  1.103029e+01    2.297513e+03
  1.108341e+01    2.287782e+03
  1.113653e+01    2.271586e+03
  1.118965e+01    2.251544e+03
  1.124277e+01    2.237008e+03
  1.129588e+01    2.232758e+03
  1.134900e+01    2.226051e+03
  1.140212e+01    2.233456e+03
  1.145524e+01    2.233569e+03
  1.150836e+01    2.242606e+03
  1.156148e+01    2.237980e+03
  1.161459e+01    2.241563e+03
  1.166771e+01    2.226234e+03
  1.172083e+01    2.226797e+03
  1.177395e+01    2.207593e+03
  1.182707e+01    2.200820e+03
  1.188018e+01    2.201727e+03
  1.193330e+01    2.186108e+03
  1.198642e+01    2.166298e+03
  1.203954e+01    2.148792e+03
  1.209266e+01    2.143568e+03
  1.214578e+01    2.134815e+03
  1.219889e+01    2.142532e+03
  1.225201e+01    2.143780e+03
  1.230513e+01    2.135990e+03
  1.235825e+01    2.132467e+03
  1.241137e+01    2.118031e+03
  1.246448e+01    2.117072e+03
  1.251760e+01    2.112393e+03
  1.257072e+01    2.106526e+03
  1.262384e+01    2.111412e+03
  1.267696e+01    2.100595e+03
  1.273008e+01    2.085347e+03
  1.278319e+01    2.073294e+03
  1.283631e+01    2.064968e+03
  1.288943e+01    2.059052e+03
  1.294255e+01    2.046443e+03
  1.299567e+01    2.044071e+03
  1.304878e+01    2.037486e+03
  1.310190e+01    2.035098e+03
  1.315502e+01    2.029896e+03
  1.320814e+01    2.009550e+03
  1.326126e+01    1.984568e+03
  1.331437e+01    1.975903e+03
  1.336749e+01    1.969523e+03
  1.342061e+01    1.958036e+03
  1.347373e+01    1.978652e+03
  1.352685e+01    1.977356e+03
  1.357997e+01    1.965493e+03
  1.363308e+01    1.956368e+03
  1.368620e+01    1.949714e+03
  1.373932e+01    1.941376e+03
  1.379244e+01    1.935582e+03
  1.384556e+01    1.928614e+03
  1.389867e+01    1.919987e+03
  1.395179e+01    1.908676e+03
  1.400491e+01    1.907790e+03
  1.405803e+01    1.903787e+03
  1.411115e+01    1.896688e+03
  1.416427e+01    1.887885e+03
  1.421738e+01    1.885288e+03
  1.427050e+01    1.873869e+03
  1.432362e+01    1.875397e+03
  1.437674e+01    1.873868e+03
  1.442986e+01    1.861822e+03
  1.448297e+01    1.856486e+03
  1.453609e+01    1.849844e+03
  1.458921e+01    1.838805e+03
  1.464233e+01    1.834700e+03
  1.469545e+01    1.829588e+03
  1.474857e+01    1.809892e+03
  1.480168e+01    1.820845e+03
  1.485480e+01    1.816537e+03
  1.490792e+01    1.812471e+03
  1.496104e+01    1.803920e+03
  1.501416e+01    1.803085e+03
  1.506727e+01    1.798127e+03
  1.512039e+01    1.795154e+03
  1.517351e+01    1.806834e+03
  1.522663e+01    1.822102e+03
  1.527975e+01    1.818462e+03
  1.533286e+01    1.801975e+03
  1.538598e+01    1.794219e+03
  1.543910e+01    1.784827e+03
  1.549222e+01    1.781136e+03
  1.554534e+01    1.781487e+03
  1.559846e+01    1.778763e+03
  1.565157e+01    1.770305e+03
  1.570469e+01    1.766028e+03
  1.575781e+01    1.763321e+03
  1.581093e+01    1.760171e+03
  1.586405e+01    1.756683e+03
  1.591716e+01    1.752568e+03
  1.597028e+01    1.745392e+03
  1.602340e+01    1.730380e+03
  1.607652e+01    1.719078e+03
  1.612964e+01    1.694906e+03
  1.618276e+01    1.683137e+03
  1.623587e+01    1.685828e+03
  1.628899e+01    1.701543e+03
  1.634211e+01    1.699542e+03
  1.639523e+01    1.693387e+03
  1.644835e+01    1.696909e+03
  1.650146e+01    1.689303e+03
  1.655458e+01    1.689945e+03
  1.660770e+01    1.685041e+03
  1.666082e+01    1.679579e+03
  1.671394e+01    1.677806e+03
  1.676706e+01    1.674919e+03
  1.682017e+01    1.688816e+03
  1.687329e+01    1.676193e+03
  1.692641e+01    1.670537e+03
  1.697953e+01    1.665055e+03
  1.703265e+01    1.660373e+03
  1.708576e+01    1.659665e+03
  1.713888e+01    1.652645e+03
  1.719200e+01    1.651147e+03
  1.724512e+01    1.643003e+03
  1.729824e+01    1.643055e+03
  1.735136e+01    1.637305e+03
  1.740447e+01    1.615093e+03
  1.745759e+01    1.623380e+03
  1.751071e+01    1.625157e+03
  1.756383e+01    1.635059e+03
  1.761695e+01    1.619238e+03
  1.767006e+01    1.616094e+03
  1.772318e+01    1.606780e+03
  1.777630e+01    1.606938e+03
  1.782942e+01    1.598251e+03
  1.788254e+01    1.595181e+03
  1.793565e+01    1.591858e+03
  1.798877e+01    1.589769e+03
  1.804189e+01    1.582403e+03
  1.809501e+01    1.578954e+03
  1.814813e+01    1.574405e+03
  1.820125e+01    1.569212e+03
  1.825436e+01    1.575752e+03
  1.830748e+01    1.568842e+03
  1.836060e+01    1.564448e+03
  1.841372e+01    1.561720e+03
  1.846684e+01    1.556694e+03
  1.851995e+01    1.537191e+03
  1.857307e+01    1.522822e+03
  1.862619e+01    1.514081e+03
  1.867931e+01    1.510989e+03
  1.873243e+01    1.529538e+03
  1.878555e+01    1.531201e+03
  1.883866e+01    1.530324e+03
  1.889178e+01    1.529900e+03
  1.894490e+01    1.540800e+03
  1.899802e+01    1.532285e+03
  1.905114e+01    1.526609e+03
  1.910425e+01    1.521471e+03
  1.915737e+01    1.517255e+03
  1.921049e+01    1.513484e+03
  1.926361e+01    1.509654e+03
  1.931673e+01    1.506861e+03
  1.936985e+01    1.504807e+03
  1.942296e+01    1.502489e+03
  1.947608e+01    1.501297e+03
  1.952920e+01    1.500206e+03
  1.958232e+01    1.498074e+03
  1.963544e+01    1.502681e+03
  1.968855e+01    1.489195e+03
  1.974167e+01    1.477779e+03
  1.979479e+01    1.482195e+03
  1.984791e+01    1.480434e+03
  1.990103e+01    1.477854e+03
  1.995414e+01    1.476671e+03
  2.000726e+01    1.473650e+03
  2.006038e+01    1.469905e+03
  2.011350e+01    1.465935e+03
  2.016662e+01    1.460173e+03
  2.021974e+01    1.462522e+03
  2.027285e+01    1.469325e+03
  2.032597e+01    1.453563e+03
  2.037909e+01    1.449692e+03
  2.043221e+01    1.444343e+03
  2.048533e+01    1.442745e+03
  2.053844e+01    1.440815e+03
  2.059156e+01    1.435114e+03
  2.064468e+01    1.432728e+03
  2.069780e+01    1.414320e+03
  2.075092e+01    1.389115e+03
  2.080404e+01    1.376584e+03
  2.085715e+01    1.394362e+03
  2.091027e+01    1.421478e+03
  2.096339e+01    1.427734e+03
  2.101651e+01    1.433286e+03
  2.106963e+01    1.437238e+03
  2.112274e+01    1.440980e+03
  2.117586e+01    1.443235e+03
  2.122898e+01    1.444799e+03
  2.128210e+01    1.441872e+03
  2.133522e+01    1.442832e+03
  2.138834e+01    1.441305e+03
  2.144145e+01    1.440565e+03
  2.149457e+01    1.440949e+03
  2.154769e+01    1.440698e+03
  2.160081e+01    1.438234e+03
  2.165393e+01    1.439363e+03
  2.170704e+01    1.440193e+03
  2.176016e+01    1.430066e+03
  2.181328e+01    1.437678e+03
  2.186640e+01    1.440578e+03
  2.191952e+01    1.437507e+03
  2.197263e+01    1.436239e+03
  2.202575e+01    1.434157e+03
  2.207887e+01    1.433373e+03
  2.213199e+01    1.433099e+03
  2.218511e+01    1.430962e+03
  2.223823e+01    1.429369e+03
  2.229134e+01    1.427891e+03
  2.234446e+01    1.427040e+03
  2.239758e+01    1.428553e+03
  2.245070e+01    1.425011e+03
  2.250382e+01    1.426492e+03
  2.255693e+01    1.422876e+03
  2.261005e+01    1.405469e+03
  2.266317e+01    1.392565e+03
  2.271629e+01    1.385940e+03
  2.276941e+01    1.374067e+03
  2.282253e+01    1.367310e+03
  2.287564e+01    1.363669e+03
  2.292876e+01    1.357456e+03
  2.298188e+01    1.357448e+03
  2.303500e+01    1.353794e+03
  2.308812e+01    1.350580e+03
  2.314123e+01    1.348205e+03
  2.319435e+01    1.344726e+03
  2.324747e+01    1.336826e+03
  2.330059e+01    1.334653e+03
  2.335371e+01    1.331591e+03
  2.340683e+01    1.326128e+03
  2.345994e+01    1.322668e+03
  2.351306e+01    1.319638e+03
  2.356618e+01    1.316458e+03
  2.361930e+01    1.312859e+03
  2.367242e+01    1.304604e+03
  2.372553e+01    1.297478e+03
  2.377865e+01    1.293111e+03
  2.383177e+01    1.289276e+03
  2.388489e+01    1.285306e+03
  2.393801e+01    1.281134e+03
  2.399113e+01    1.280192e+03
  2.404424e+01    1.279841e+03
  2.409736e+01    1.279081e+03
  2.415048e+01    1.274394e+03
  2.420360e+01    1.271778e+03
  2.425672e+01    1.266826e+03
  2.430983e+01    1.265772e+03
  2.436295e+01    1.264441e+03
  2.441607e+01    1.260016e+03
  2.446919e+01    1.258143e+03
  2.452231e+01    1.258417e+03
  2.457542e+01    1.256584e+03
  2.462854e+01    1.252737e+03
  2.468166e+01    1.251393e+03
  2.473478e+01    1.246543e+03
  2.478790e+01    1.240402e+03
  2.484102e+01    1.236817e+03
  2.489413e+01    1.233544e+03
  2.494725e+01    1.227362e+03
  2.500037e+01    1.223314e+03
  2.505349e+01    1.219424e+03
  2.510661e+01    1.214662e+03
  2.515972e+01    1.211856e+03
  2.521284e+01    1.212589e+03
  2.526596e+01    1.207340e+03
  2.531908e+01    1.204914e+03
  2.537220e+01    1.203962e+03
  2.542532e+01    1.199861e+03
  2.547843e+01    1.197639e+03
  2.553155e+01    1.192755e+03
  2.558467e+01    1.190640e+03
  2.563779e+01    1.180960e+03
  2.569091e+01    1.176608e+03
  2.574402e+01    1.168254e+03
  2.579714e+01    1.162103e+03
  2.585026e+01    1.151659e+03
  2.590338e+01    1.145436e+03
  2.595650e+01    1.141902e+03
  2.600962e+01    1.142859e+03
  2.606273e+01    1.142525e+03
  2.611585e+01    1.140392e+03
  2.616897e+01    1.139228e+03
  2.622209e+01    1.141170e+03
  2.627521e+01    1.137241e+03
  2.632832e+01    1.124328e+03
  2.638144e+01    1.128758e+03
  2.643456e+01    1.124806e+03
  2.648768e+01    1.106484e+03
  2.654080e+01    1.083987e+03
