# == pyFAI calibration ==
# Distance Sample to Detector: 0.2946421923531691 m
# PONI: 2.875e-01, 2.439e-01 m
# Rotations: -0.010990 -0.009181 0.000003 rad
# 
# == Fit2d calibration ==
# Distance Sample-beamCenter: 294.672 mm
# Center: x=1436.809, y=1655.851 pix
# Tilt: 0.820 deg  TiltPlanRot: -39.874 deg
# 
# Detector Pilatus 2M	 PixelSize= 1.720e-04, 1.720e-04 m
#    Detector has a mask: True 
#    Detector has a dark current: False 
#    detector has a flat field: False 
# 
# Wavelength: 2.0732883349524408e-11 m
# Mask applied: from detector
# Dark current applied: False
# Flat field applied: False
# Polarization factor: None
# Normalization factor: 1.0
# --> /gpfs/current/raw/FMue_3/FMue_3_20231024_175355_00028.dat
#        q_A^-1             I 
  3.483473e-02             nan
  8.795289e-02             nan
  1.410711e-01             nan
  1.941892e-01             nan
  2.473074e-01             nan
  3.004255e-01             nan
  3.535437e-01             nan
  4.066619e-01    9.661212e+03
  4.597800e-01    9.226270e+03
  5.128982e-01    8.286560e+03
  5.660163e-01    7.911349e+03
  6.191345e-01    7.896117e+03
  6.722527e-01    8.009625e+03
  7.253708e-01    8.342627e+03
  7.784890e-01    1.364834e+04
  8.316071e-01    2.717589e+04
  8.847253e-01    1.633686e+04
  9.378435e-01    9.320363e+03
  9.909616e-01    9.898906e+03
  1.044080e+00    1.006485e+04
  1.097198e+00    9.844058e+03
  1.150316e+00    1.020833e+04
  1.203434e+00    1.091045e+04
  1.256552e+00    1.191815e+04
  1.309671e+00    1.276817e+04
  1.362789e+00    1.365133e+04
  1.415907e+00    1.432375e+04
  1.469025e+00    1.457289e+04
  1.522143e+00    1.449615e+04
  1.575261e+00    1.404272e+04
  1.628380e+00    1.603719e+04
  1.681498e+00    1.765663e+04
  1.734616e+00    1.237599e+04
  1.787734e+00    1.044764e+04
  1.840852e+00    9.687217e+03
  1.893970e+00    9.159510e+03
  1.947089e+00    9.065070e+03
  2.000207e+00    8.694391e+03
  2.053325e+00    7.998714e+03
  2.106443e+00    7.763320e+03
  2.159561e+00    7.888983e+03
  2.212679e+00    8.063097e+03
  2.265797e+00    8.281175e+03
  2.318916e+00    8.159625e+03
  2.372034e+00    8.799981e+03
  2.425152e+00    1.327541e+04
  2.478270e+00    9.287141e+03
  2.531388e+00    8.044211e+03
  2.584506e+00    8.834962e+03
  2.637625e+00    8.687136e+03
  2.690743e+00    9.145889e+03
  2.743861e+00    1.245754e+04
  2.796979e+00    8.103301e+03
  2.850097e+00    5.798737e+03
  2.903215e+00    5.376398e+03
  2.956334e+00    5.210958e+03
  3.009452e+00    5.325967e+03
  3.062570e+00    6.162690e+03
  3.115688e+00    7.804011e+03
  3.168806e+00    8.782559e+03
  3.221924e+00    1.058166e+04
  3.275043e+00    9.691929e+03
  3.328161e+00    6.164244e+03
  3.381279e+00    5.908112e+03
  3.434397e+00    5.312356e+03
  3.487515e+00    5.021465e+03
  3.540633e+00    4.951412e+03
  3.593751e+00    5.081424e+03
  3.646870e+00    6.201685e+03
  3.699988e+00    5.472628e+03
  3.753106e+00    4.913033e+03
  3.806224e+00    5.100756e+03
  3.859342e+00    5.859704e+03
  3.912460e+00    5.535218e+03
  3.965579e+00    5.122535e+03
  4.018697e+00    5.444085e+03
  4.071815e+00    7.405932e+03
  4.124933e+00    7.993237e+03
  4.178051e+00    8.616512e+03
  4.231169e+00    6.760919e+03
  4.284288e+00    6.406587e+03
  4.337406e+00    7.218614e+03
  4.390524e+00    7.821796e+03
  4.443642e+00    1.018707e+04
  4.496760e+00    1.184881e+04
  4.549878e+00    9.450481e+03
  4.602997e+00    6.148135e+03
  4.656115e+00    5.181650e+03
  4.709233e+00    5.316797e+03
  4.762351e+00    5.993563e+03
  4.815469e+00    5.665959e+03
  4.868587e+00    5.307472e+03
  4.921705e+00    5.738485e+03
  4.974824e+00    5.608045e+03
  5.027942e+00    5.804057e+03
  5.081060e+00    5.646664e+03
  5.134178e+00    5.179336e+03
  5.187296e+00    5.099901e+03
  5.240414e+00    5.272363e+03
  5.293533e+00    4.885317e+03
  5.346651e+00    4.482342e+03
  5.399769e+00    4.283035e+03
  5.452887e+00    4.405310e+03
  5.506005e+00    4.562842e+03
  5.559123e+00    4.060577e+03
  5.612242e+00    3.914218e+03
  5.665360e+00    3.816942e+03
  5.718478e+00    3.533897e+03
  5.771596e+00    3.547263e+03
  5.824714e+00    3.674781e+03
  5.877832e+00    3.627834e+03
  5.930951e+00    3.707154e+03
  5.984069e+00    3.825831e+03
  6.037187e+00    3.752245e+03
  6.090305e+00    3.752022e+03
  6.143423e+00    3.701011e+03
  6.196541e+00    3.702027e+03
  6.249660e+00    4.206460e+03
  6.302778e+00    4.303362e+03
  6.355896e+00    3.961143e+03
  6.409014e+00    4.111753e+03
  6.462132e+00    3.984473e+03
  6.515250e+00    3.836004e+03
  6.568368e+00    3.655646e+03
  6.621487e+00    3.687192e+03
  6.674605e+00    3.618852e+03
  6.727723e+00    3.428935e+03
  6.780841e+00    3.373991e+03
  6.833959e+00    3.450518e+03
  6.887077e+00    3.368136e+03
  6.940196e+00    3.355778e+03
  6.993314e+00    3.417009e+03
  7.046432e+00    3.419338e+03
  7.099550e+00    3.679723e+03
  7.152668e+00    3.701856e+03
  7.205786e+00    3.414767e+03
  7.258905e+00    3.327672e+03
  7.312023e+00    3.198825e+03
  7.365141e+00    3.134239e+03
  7.418259e+00    3.100361e+03
  7.471377e+00    3.118886e+03
  7.524495e+00    3.216138e+03
  7.577614e+00    3.236326e+03
  7.630732e+00    3.295130e+03
  7.683850e+00    3.489759e+03
  7.736968e+00    3.658914e+03
  7.790086e+00    3.714677e+03
  7.843204e+00    3.605120e+03
  7.896322e+00    3.260186e+03
  7.949441e+00    3.053155e+03
  8.002559e+00    2.988263e+03
  8.055677e+00    2.974356e+03
  8.108795e+00    3.005243e+03
  8.161913e+00    3.138997e+03
  8.215031e+00    3.281321e+03
  8.268150e+00    3.111140e+03
  8.321268e+00    2.998733e+03
  8.374386e+00    3.029159e+03
  8.427504e+00    2.973548e+03
  8.480622e+00    2.941963e+03
  8.533740e+00    2.989776e+03
  8.586859e+00    3.026195e+03
  8.639977e+00    3.009403e+03
  8.693095e+00    2.948970e+03
  8.746213e+00    2.924304e+03
  8.799331e+00    2.913091e+03
  8.852449e+00    2.866177e+03
  8.905568e+00    2.851749e+03
  8.958686e+00    2.911372e+03
  9.011804e+00    2.913297e+03
  9.064922e+00    2.852835e+03
  9.118040e+00    2.730613e+03
  9.171158e+00    2.727434e+03
  9.224276e+00    2.747879e+03
  9.277395e+00    2.700072e+03
  9.330513e+00    2.667621e+03
  9.383631e+00    2.667124e+03
  9.436749e+00    2.645809e+03
  9.489867e+00    2.663248e+03
  9.542985e+00    2.678302e+03
  9.596104e+00    2.678233e+03
  9.649222e+00    2.629684e+03
  9.702340e+00    2.606883e+03
  9.755458e+00    2.610831e+03
  9.808576e+00    2.572905e+03
  9.861694e+00    2.567758e+03
  9.914813e+00    2.577453e+03
  9.967931e+00    2.583383e+03
  1.002105e+01    2.564643e+03
  1.007417e+01    2.518133e+03
  1.012729e+01    2.465655e+03
  1.018040e+01    2.460852e+03
  1.023352e+01    2.459795e+03
  1.028664e+01    2.451564e+03
  1.033976e+01    2.465658e+03
  1.039288e+01    2.477372e+03
  1.044599e+01    2.449631e+03
  1.049911e+01    2.456334e+03
  1.055223e+01    2.448732e+03
  1.060535e+01    2.429585e+03
  1.065847e+01    2.416621e+03
  1.071158e+01    2.407031e+03
  1.076470e+01    2.396315e+03
  1.081782e+01    2.424784e+03
  1.087094e+01    2.437292e+03
  1.092406e+01    2.421268e+03
  1.097718e+01    2.406368e+03
  1.103029e+01    2.371421e+03
  1.108341e+01    2.358548e+03
  1.113653e+01    2.350431e+03
  1.118965e+01    2.332563e+03
  1.124277e+01    2.322756e+03
  1.129588e+01    2.321300e+03
  1.134900e+01    2.314939e+03
  1.140212e+01    2.296769e+03
  1.145524e+01    2.271887e+03
  1.150836e+01    2.271716e+03
  1.156148e+01    2.276956e+03
  1.161459e+01    2.288116e+03
  1.166771e+01    2.271230e+03
  1.172083e+01    2.290312e+03
  1.177395e+01    2.280079e+03
  1.182707e+01    2.283672e+03
  1.188018e+01    2.297146e+03
  1.193330e+01    2.288027e+03
  1.198642e+01    2.269487e+03
  1.203954e+01    2.245153e+03
  1.209266e+01    2.231156e+03
  1.214578e+01    2.224985e+03
  1.219889e+01    2.224752e+03
  1.225201e+01    2.233634e+03
  1.230513e+01    2.247777e+03
  1.235825e+01    2.248650e+03
  1.241137e+01    2.229458e+03
  1.246448e+01    2.225905e+03
  1.251760e+01    2.235239e+03
  1.257072e+01    2.231086e+03
  1.262384e+01    2.227639e+03
  1.267696e+01    2.213503e+03
  1.273008e+01    2.200926e+03
  1.278319e+01    2.184579e+03
  1.283631e+01    2.166224e+03
  1.288943e+01    2.157200e+03
  1.294255e+01    2.148227e+03
  1.299567e+01    2.142120e+03
  1.304878e+01    2.132626e+03
  1.310190e+01    2.128792e+03
  1.315502e+01    2.129008e+03
  1.320814e+01    2.105453e+03
  1.326126e+01    2.071143e+03
  1.331437e+01    2.052065e+03
  1.336749e+01    2.039993e+03
  1.342061e+01    2.024227e+03
  1.347373e+01    2.049845e+03
  1.352685e+01    2.055021e+03
  1.357997e+01    2.047568e+03
  1.363308e+01    2.036754e+03
  1.368620e+01    2.027357e+03
  1.373932e+01    2.013421e+03
  1.379244e+01    2.002125e+03
  1.384556e+01    1.997652e+03
  1.389867e+01    1.992823e+03
  1.395179e+01    1.988544e+03
  1.400491e+01    1.985203e+03
  1.405803e+01    1.981051e+03
  1.411115e+01    1.971562e+03
  1.416427e+01    1.966700e+03
  1.421738e+01    1.966448e+03
  1.427050e+01    1.959166e+03
  1.432362e+01    1.960932e+03
  1.437674e+01    1.962789e+03
  1.442986e+01    1.950364e+03
  1.448297e+01    1.942868e+03
  1.453609e+01    1.934532e+03
  1.458921e+01    1.922588e+03
  1.464233e+01    1.919456e+03
  1.469545e+01    1.914126e+03
  1.474857e+01    1.898676e+03
  1.480168e+01    1.914665e+03
  1.485480e+01    1.911123e+03
  1.490792e+01    1.903714e+03
  1.496104e+01    1.892612e+03
  1.501416e+01    1.889625e+03
  1.506727e+01    1.882356e+03
  1.512039e+01    1.879245e+03
  1.517351e+01    1.891039e+03
  1.522663e+01    1.904392e+03
  1.527975e+01    1.902438e+03
  1.533286e+01    1.886022e+03
  1.538598e+01    1.876255e+03
  1.543910e+01    1.863261e+03
  1.549222e+01    1.862161e+03
  1.554534e+01    1.866171e+03
  1.559846e+01    1.862635e+03
  1.565157e+01    1.855058e+03
  1.570469e+01    1.848023e+03
  1.575781e+01    1.842722e+03
  1.581093e+01    1.838530e+03
  1.586405e+01    1.836614e+03
  1.591716e+01    1.830400e+03
  1.597028e+01    1.822421e+03
  1.602340e+01    1.807458e+03
  1.607652e+01    1.796724e+03
  1.612964e+01    1.773214e+03
  1.618276e+01    1.763416e+03
  1.623587e+01    1.765731e+03
  1.628899e+01    1.780674e+03
  1.634211e+01    1.780575e+03
  1.639523e+01    1.777183e+03
  1.644835e+01    1.778875e+03
  1.650146e+01    1.774233e+03
  1.655458e+01    1.774262e+03
  1.660770e+01    1.769453e+03
  1.666082e+01    1.761841e+03
  1.671394e+01    1.761017e+03
  1.676706e+01    1.756942e+03
  1.682017e+01    1.768543e+03
  1.687329e+01    1.759420e+03
  1.692641e+01    1.751550e+03
  1.697953e+01    1.747499e+03
  1.703265e+01    1.744018e+03
  1.708576e+01    1.742859e+03
  1.713888e+01    1.733880e+03
  1.719200e+01    1.730878e+03
  1.724512e+01    1.723138e+03
  1.729824e+01    1.723461e+03
  1.735136e+01    1.717792e+03
  1.740447e+01    1.694803e+03
  1.745759e+01    1.701072e+03
  1.751071e+01    1.703407e+03
  1.756383e+01    1.712670e+03
  1.761695e+01    1.694804e+03
  1.767006e+01    1.692511e+03
  1.772318e+01    1.683086e+03
  1.777630e+01    1.682904e+03
  1.782942e+01    1.675083e+03
  1.788254e+01    1.671604e+03
  1.793565e+01    1.670015e+03
  1.798877e+01    1.666655e+03
  1.804189e+01    1.658527e+03
  1.809501e+01    1.654406e+03
  1.814813e+01    1.651422e+03
  1.820125e+01    1.645869e+03
  1.825436e+01    1.652474e+03
  1.830748e+01    1.645227e+03
  1.836060e+01    1.641885e+03
  1.841372e+01    1.639844e+03
  1.846684e+01    1.636508e+03
  1.851995e+01    1.614724e+03
  1.857307e+01    1.599919e+03
  1.862619e+01    1.590107e+03
  1.867931e+01    1.586763e+03
  1.873243e+01    1.605549e+03
  1.878555e+01    1.608492e+03
  1.883866e+01    1.607661e+03
  1.889178e+01    1.606701e+03
  1.894490e+01    1.617985e+03
  1.899802e+01    1.608910e+03
  1.905114e+01    1.602125e+03
  1.910425e+01    1.596705e+03
  1.915737e+01    1.592581e+03
  1.921049e+01    1.587897e+03
  1.926361e+01    1.584167e+03
  1.931673e+01    1.581249e+03
  1.936985e+01    1.579992e+03
  1.942296e+01    1.577498e+03
  1.947608e+01    1.576655e+03
  1.952920e+01    1.572831e+03
  1.958232e+01    1.572553e+03
  1.963544e+01    1.577404e+03
  1.968855e+01    1.563040e+03
  1.974167e+01    1.550771e+03
  1.979479e+01    1.554858e+03
  1.984791e+01    1.553694e+03
  1.990103e+01    1.551767e+03
  1.995414e+01    1.549797e+03
  2.000726e+01    1.546457e+03
  2.006038e+01    1.542736e+03
  2.011350e+01    1.539396e+03
  2.016662e+01    1.532909e+03
  2.021974e+01    1.536931e+03
  2.027285e+01    1.543473e+03
  2.032597e+01    1.527891e+03
  2.037909e+01    1.521832e+03
  2.043221e+01    1.517534e+03
  2.048533e+01    1.515374e+03
  2.053844e+01    1.515489e+03
  2.059156e+01    1.509139e+03
  2.064468e+01    1.507615e+03
  2.069780e+01    1.486516e+03
  2.075092e+01    1.462065e+03
  2.080404e+01    1.446627e+03
  2.085715e+01    1.468050e+03
  2.091027e+01    1.494957e+03
  2.096339e+01    1.502200e+03
  2.101651e+01    1.505701e+03
  2.106963e+01    1.510571e+03
  2.112274e+01    1.513243e+03
  2.117586e+01    1.516077e+03
  2.122898e+01    1.518227e+03
  2.128210e+01    1.516031e+03
  2.133522e+01    1.516706e+03
  2.138834e+01    1.514346e+03
  2.144145e+01    1.512906e+03
  2.149457e+01    1.514937e+03
  2.154769e+01    1.513836e+03
  2.160081e+01    1.513408e+03
  2.165393e+01    1.515142e+03
  2.170704e+01    1.514342e+03
  2.176016e+01    1.503491e+03
  2.181328e+01    1.512352e+03
  2.186640e+01    1.513181e+03
  2.191952e+01    1.511993e+03
  2.197263e+01    1.508476e+03
  2.202575e+01    1.505830e+03
  2.207887e+01    1.505996e+03
  2.213199e+01    1.503922e+03
  2.218511e+01    1.503132e+03
  2.223823e+01    1.501929e+03
  2.229134e+01    1.499940e+03
  2.234446e+01    1.499186e+03
  2.239758e+01    1.499013e+03
  2.245070e+01    1.496278e+03
  2.250382e+01    1.499846e+03
  2.255693e+01    1.495444e+03
  2.261005e+01    1.476477e+03
  2.266317e+01    1.463576e+03
  2.271629e+01    1.452837e+03
  2.276941e+01    1.444269e+03
  2.282253e+01    1.437036e+03
  2.287564e+01    1.432930e+03
  2.292876e+01    1.428842e+03
  2.298188e+01    1.425316e+03
  2.303500e+01    1.423650e+03
  2.308812e+01    1.419651e+03
  2.314123e+01    1.418231e+03
  2.319435e+01    1.412882e+03
  2.324747e+01    1.406645e+03
  2.330059e+01    1.402720e+03
  2.335371e+01    1.400333e+03
  2.340683e+01    1.395581e+03
  2.345994e+01    1.392983e+03
  2.351306e+01    1.388178e+03
  2.356618e+01    1.386077e+03
  2.361930e+01    1.379485e+03
  2.367242e+01    1.375676e+03
  2.372553e+01    1.368181e+03
  2.377865e+01    1.362366e+03
  2.383177e+01    1.357939e+03
  2.388489e+01    1.352668e+03
  2.393801e+01    1.350454e+03
  2.399113e+01    1.347617e+03
  2.404424e+01    1.346678e+03
  2.409736e+01    1.345596e+03
  2.415048e+01    1.339602e+03
  2.420360e+01    1.338337e+03
  2.425672e+01    1.334120e+03
  2.430983e+01    1.329827e+03
  2.436295e+01    1.326885e+03
  2.441607e+01    1.325721e+03
  2.446919e+01    1.323189e+03
  2.452231e+01    1.323666e+03
  2.457542e+01    1.317702e+03
  2.462854e+01    1.317935e+03
  2.468166e+01    1.316462e+03
  2.473478e+01    1.311184e+03
  2.478790e+01    1.305566e+03
  2.484102e+01    1.299177e+03
  2.489413e+01    1.295849e+03
  2.494725e+01    1.291527e+03
  2.500037e+01    1.287842e+03
  2.505349e+01    1.282254e+03
  2.510661e+01    1.276659e+03
  2.515972e+01    1.275328e+03
  2.521284e+01    1.276319e+03
  2.526596e+01    1.274721e+03
  2.531908e+01    1.266155e+03
  2.537220e+01    1.265438e+03
  2.542532e+01    1.263172e+03
  2.547843e+01    1.257324e+03
  2.553155e+01    1.254854e+03
  2.558467e+01    1.245960e+03
  2.563779e+01    1.238529e+03
  2.569091e+01    1.233734e+03
  2.574402e+01    1.226169e+03
  2.579714e+01    1.218286e+03
  2.585026e+01    1.209708e+03
  2.590338e+01    1.205134e+03
  2.595650e+01    1.198568e+03
  2.600962e+01    1.199119e+03
  2.606273e+01    1.196696e+03
  2.611585e+01    1.202525e+03
  2.616897e+01    1.198550e+03
  2.622209e+01    1.192455e+03
  2.627521e+01    1.195137e+03
  2.632832e+01    1.181589e+03
  2.638144e+01    1.182289e+03
  2.643456e+01    1.176675e+03
  2.648768e+01    1.159371e+03
  2.654080e+01    1.142196e+03
