# == pyFAI calibration ==
# Distance Sample to Detector: 0.2946421923531691 m
# PONI: 2.875e-01, 2.439e-01 m
# Rotations: -0.010990 -0.009181 0.000003 rad
# 
# == Fit2d calibration ==
# Distance Sample-beamCenter: 294.672 mm
# Center: x=1436.809, y=1655.851 pix
# Tilt: 0.820 deg  TiltPlanRot: -39.874 deg
# 
# Detector Pilatus 2M	 PixelSize= 1.720e-04, 1.720e-04 m
#    Detector has a mask: True 
#    Detector has a dark current: False 
#    detector has a flat field: False 
# 
# Wavelength: 2.0732883349524408e-11 m
# Mask applied: from detector
# Dark current applied: False
# Flat field applied: False
# Polarization factor: None
# Normalization factor: 1.0
# --> /gpfs/current/raw/FMue_3/FMue_3_20231024_175355_00058.dat
#        q_A^-1             I 
  3.483473e-02             nan
  8.795289e-02             nan
  1.410711e-01             nan
  1.941892e-01             nan
  2.473074e-01             nan
  3.004255e-01             nan
  3.535437e-01             nan
  4.066619e-01    1.177886e+04
  4.597800e-01    1.095077e+04
  5.128982e-01    9.606089e+03
  5.660163e-01    8.940112e+03
  6.191345e-01    8.760413e+03
  6.722527e-01    8.755487e+03
  7.253708e-01    8.973110e+03
  7.784890e-01    9.427255e+03
  8.316071e-01    1.063659e+04
  8.847253e-01    1.345585e+04
  9.378435e-01    1.608528e+04
  9.909616e-01    1.400362e+04
  1.044080e+00    1.132056e+04
  1.097198e+00    1.037721e+04
  1.150316e+00    1.054188e+04
  1.203434e+00    1.118312e+04
  1.256552e+00    1.214046e+04
  1.309671e+00    1.283203e+04
  1.362789e+00    1.373448e+04
  1.415907e+00    1.442506e+04
  1.469025e+00    1.466434e+04
  1.522143e+00    1.458745e+04
  1.575261e+00    1.404477e+04
  1.628380e+00    1.335211e+04
  1.681498e+00    1.248366e+04
  1.734616e+00    1.164329e+04
  1.787734e+00    1.101525e+04
  1.840852e+00    1.049172e+04
  1.893970e+00    9.837027e+03
  1.947089e+00    9.403884e+03
  2.000207e+00    8.832518e+03
  2.053325e+00    8.097423e+03
  2.106443e+00    7.865823e+03
  2.159561e+00    8.015992e+03
  2.212679e+00    8.214175e+03
  2.265797e+00    8.512240e+03
  2.318916e+00    8.681593e+03
  2.372034e+00    9.130951e+03
  2.425152e+00    9.038881e+03
  2.478270e+00    8.944354e+03
  2.531388e+00    9.599013e+03
  2.584506e+00    1.007911e+04
  2.637625e+00    9.738606e+03
  2.690743e+00    9.088191e+03
  2.743861e+00    8.515442e+03
  2.796979e+00    7.378061e+03
  2.850097e+00    6.412864e+03
  2.903215e+00    6.039797e+03
  2.956334e+00    5.896696e+03
  3.009452e+00    5.948405e+03
  3.062570e+00    6.551486e+03
  3.115688e+00    8.407231e+03
  3.168806e+00    9.093472e+03
  3.221924e+00    7.883674e+03
  3.275043e+00    6.523134e+03
  3.328161e+00    5.940500e+03
  3.381279e+00    6.056711e+03
  3.434397e+00    5.627851e+03
  3.487515e+00    5.379520e+03
  3.540633e+00    5.307892e+03
  3.593751e+00    5.154687e+03
  3.646870e+00    5.144433e+03
  3.699988e+00    5.183294e+03
  3.753106e+00    5.288486e+03
  3.806224e+00    5.323477e+03
  3.859342e+00    5.303257e+03
  3.912460e+00    5.351535e+03
  3.965579e+00    5.515625e+03
  4.018697e+00    6.012758e+03
  4.071815e+00    7.193918e+03
  4.124933e+00    8.084055e+03
  4.178051e+00    7.441822e+03
  4.231169e+00    6.789671e+03
  4.284288e+00    6.636737e+03
  4.337406e+00    6.937374e+03
  4.390524e+00    7.558003e+03
  4.443642e+00    9.790420e+03
  4.496760e+00    1.198112e+04
  4.549878e+00    9.172598e+03
  4.602997e+00    6.163729e+03
  4.656115e+00    5.478906e+03
  4.709233e+00    5.510438e+03
  4.762351e+00    5.785868e+03
  4.815469e+00    5.676718e+03
  4.868587e+00    5.451686e+03
  4.921705e+00    5.383693e+03
  4.974824e+00    5.379735e+03
  5.027942e+00    5.303614e+03
  5.081060e+00    5.253551e+03
  5.134178e+00    5.146660e+03
  5.187296e+00    5.011781e+03
  5.240414e+00    4.833647e+03
  5.293533e+00    4.692644e+03
  5.346651e+00    4.540997e+03
  5.399769e+00    4.402419e+03
  5.452887e+00    4.409128e+03
  5.506005e+00    4.456866e+03
  5.559123e+00    4.108933e+03
  5.612242e+00    3.820682e+03
  5.665360e+00    3.724208e+03
  5.718478e+00    3.607925e+03
  5.771596e+00    3.511604e+03
  5.824714e+00    3.487033e+03
  5.877832e+00    3.520955e+03
  5.930951e+00    3.607946e+03
  5.984069e+00    3.720271e+03
  6.037187e+00    3.790339e+03
  6.090305e+00    3.783409e+03
  6.143423e+00    3.731549e+03
  6.196541e+00    3.836271e+03
  6.249660e+00    4.139396e+03
  6.302778e+00    4.253312e+03
  6.355896e+00    3.996995e+03
  6.409014e+00    3.822509e+03
  6.462132e+00    3.708183e+03
  6.515250e+00    3.592653e+03
  6.568368e+00    3.537842e+03
  6.621487e+00    3.488425e+03
  6.674605e+00    3.444524e+03
  6.727723e+00    3.464172e+03
  6.780841e+00    3.449139e+03
  6.833959e+00    3.397213e+03
  6.887077e+00    3.350942e+03
  6.940196e+00    3.309594e+03
  6.993314e+00    3.360205e+03
  7.046432e+00    3.446859e+03
  7.099550e+00    3.443403e+03
  7.152668e+00    3.372209e+03
  7.205786e+00    3.282560e+03
  7.258905e+00    3.189193e+03
  7.312023e+00    3.144958e+03
  7.365141e+00    3.131123e+03
  7.418259e+00    3.142966e+03
  7.471377e+00    3.164403e+03
  7.524495e+00    3.198487e+03
  7.577614e+00    3.219529e+03
  7.630732e+00    3.239095e+03
  7.683850e+00    3.368462e+03
  7.736968e+00    3.594012e+03
  7.790086e+00    3.613933e+03
  7.843204e+00    3.400595e+03
  7.896322e+00    3.176538e+03
  7.949441e+00    3.046695e+03
  8.002559e+00    3.000567e+03
  8.055677e+00    3.005534e+03
  8.108795e+00    3.028272e+03
  8.161913e+00    3.078433e+03
  8.215031e+00    3.085617e+03
  8.268150e+00    3.038808e+03
  8.321268e+00    2.989504e+03
  8.374386e+00    2.961529e+03
  8.427504e+00    2.948461e+03
  8.480622e+00    2.936329e+03
  8.533740e+00    2.885148e+03
  8.586859e+00    2.913388e+03
  8.639977e+00    2.897103e+03
  8.693095e+00    2.873176e+03
  8.746213e+00    2.854969e+03
  8.799331e+00    2.827165e+03
  8.852449e+00    2.810698e+03
  8.905568e+00    2.831680e+03
  8.958686e+00    2.849219e+03
  9.011804e+00    2.854234e+03
  9.064922e+00    2.785000e+03
  9.118040e+00    2.695290e+03
  9.171158e+00    2.655597e+03
  9.224276e+00    2.639146e+03
  9.277395e+00    2.615392e+03
  9.330513e+00    2.609312e+03
  9.383631e+00    2.613097e+03
  9.436749e+00    2.611814e+03
  9.489867e+00    2.623586e+03
  9.542985e+00    2.613654e+03
  9.596104e+00    2.577287e+03
  9.649222e+00    2.554524e+03
  9.702340e+00    2.540408e+03
  9.755458e+00    2.536620e+03
  9.808576e+00    2.525823e+03
  9.861694e+00    2.531577e+03
  9.914813e+00    2.541765e+03
  9.967931e+00    2.536651e+03
  1.002105e+01    2.496132e+03
  1.007417e+01    2.442558e+03
  1.012729e+01    2.412321e+03
  1.018040e+01    2.412133e+03
  1.023352e+01    2.413026e+03
  1.028664e+01    2.399226e+03
  1.033976e+01    2.392425e+03
  1.039288e+01    2.415272e+03
  1.044599e+01    2.400026e+03
  1.049911e+01    2.395533e+03
  1.055223e+01    2.373790e+03
  1.060535e+01    2.367914e+03
  1.065847e+01    2.360258e+03
  1.071158e+01    2.354988e+03
  1.076470e+01    2.352880e+03
  1.081782e+01    2.354248e+03
  1.087094e+01    2.341810e+03
  1.092406e+01    2.341592e+03
  1.097718e+01    2.333927e+03
  1.103029e+01    2.324393e+03
  1.108341e+01    2.309460e+03
  1.113653e+01    2.295915e+03
  1.118965e+01    2.280837e+03
  1.124277e+01    2.272449e+03
  1.129588e+01    2.266498e+03
  1.134900e+01    2.254151e+03
  1.140212e+01    2.247651e+03
  1.145524e+01    2.235058e+03
  1.150836e+01    2.232525e+03
  1.156148e+01    2.224229e+03
  1.161459e+01    2.226403e+03
  1.166771e+01    2.222050e+03
  1.172083e+01    2.241242e+03
  1.177395e+01    2.235735e+03
  1.182707e+01    2.235336e+03
  1.188018e+01    2.241710e+03
  1.193330e+01    2.227497e+03
  1.198642e+01    2.211634e+03
  1.203954e+01    2.191369e+03
  1.209266e+01    2.184147e+03
  1.214578e+01    2.175736e+03
  1.219889e+01    2.178115e+03
  1.225201e+01    2.177446e+03
  1.230513e+01    2.173874e+03
  1.235825e+01    2.178729e+03
  1.241137e+01    2.172862e+03
  1.246448e+01    2.173224e+03
  1.251760e+01    2.172376e+03
  1.257072e+01    2.166394e+03
  1.262384e+01    2.169618e+03
  1.267696e+01    2.150509e+03
  1.273008e+01    2.136959e+03
  1.278319e+01    2.125870e+03
  1.283631e+01    2.115310e+03
  1.288943e+01    2.108160e+03
  1.294255e+01    2.094604e+03
  1.299567e+01    2.086361e+03
  1.304878e+01    2.080824e+03
  1.310190e+01    2.074284e+03
  1.315502e+01    2.067705e+03
  1.320814e+01    2.041222e+03
  1.326126e+01    2.011761e+03
  1.331437e+01    1.997883e+03
  1.336749e+01    1.987018e+03
  1.342061e+01    1.974191e+03
  1.347373e+01    2.001629e+03
  1.352685e+01    2.003964e+03
  1.357997e+01    1.995353e+03
  1.363308e+01    1.983862e+03
  1.368620e+01    1.973036e+03
  1.373932e+01    1.965199e+03
  1.379244e+01    1.958956e+03
  1.384556e+01    1.953078e+03
  1.389867e+01    1.945302e+03
  1.395179e+01    1.938598e+03
  1.400491e+01    1.937044e+03
  1.405803e+01    1.932396e+03
  1.411115e+01    1.926764e+03
  1.416427e+01    1.917562e+03
  1.421738e+01    1.915206e+03
  1.427050e+01    1.909216e+03
  1.432362e+01    1.909960e+03
  1.437674e+01    1.908795e+03
  1.442986e+01    1.896317e+03
  1.448297e+01    1.889632e+03
  1.453609e+01    1.883046e+03
  1.458921e+01    1.872946e+03
  1.464233e+01    1.870027e+03
  1.469545e+01    1.864310e+03
  1.474857e+01    1.847108e+03
  1.480168e+01    1.857292e+03
  1.485480e+01    1.855377e+03
  1.490792e+01    1.851554e+03
  1.496104e+01    1.843492e+03
  1.501416e+01    1.841797e+03
  1.506727e+01    1.837311e+03
  1.512039e+01    1.831833e+03
  1.517351e+01    1.843695e+03
  1.522663e+01    1.859099e+03
  1.527975e+01    1.851964e+03
  1.533286e+01    1.835645e+03
  1.538598e+01    1.825044e+03
  1.543910e+01    1.817283e+03
  1.549222e+01    1.813366e+03
  1.554534e+01    1.814757e+03
  1.559846e+01    1.811414e+03
  1.565157e+01    1.804446e+03
  1.570469e+01    1.798784e+03
  1.575781e+01    1.794397e+03
  1.581093e+01    1.789904e+03
  1.586405e+01    1.788028e+03
  1.591716e+01    1.783586e+03
  1.597028e+01    1.775629e+03
  1.602340e+01    1.761561e+03
  1.607652e+01    1.751869e+03
  1.612964e+01    1.728287e+03
  1.618276e+01    1.718268e+03
  1.623587e+01    1.721394e+03
  1.628899e+01    1.736422e+03
  1.634211e+01    1.733932e+03
  1.639523e+01    1.729199e+03
  1.644835e+01    1.731730e+03
  1.650146e+01    1.723206e+03
  1.655458e+01    1.722629e+03
  1.660770e+01    1.717510e+03
  1.666082e+01    1.713493e+03
  1.671394e+01    1.712804e+03
  1.676706e+01    1.707305e+03
  1.682017e+01    1.721227e+03
  1.687329e+01    1.711193e+03
  1.692641e+01    1.703304e+03
  1.697953e+01    1.698271e+03
  1.703265e+01    1.694256e+03
  1.708576e+01    1.692206e+03
  1.713888e+01    1.684369e+03
  1.719200e+01    1.684348e+03
  1.724512e+01    1.676372e+03
  1.729824e+01    1.676828e+03
  1.735136e+01    1.670164e+03
  1.740447e+01    1.648395e+03
  1.745759e+01    1.655125e+03
  1.751071e+01    1.656590e+03
  1.756383e+01    1.666637e+03
  1.761695e+01    1.650565e+03
  1.767006e+01    1.647498e+03
  1.772318e+01    1.638771e+03
  1.777630e+01    1.636461e+03
  1.782942e+01    1.629524e+03
  1.788254e+01    1.625200e+03
  1.793565e+01    1.621565e+03
  1.798877e+01    1.619516e+03
  1.804189e+01    1.614366e+03
  1.809501e+01    1.608143e+03
  1.814813e+01    1.606752e+03
  1.820125e+01    1.601905e+03
  1.825436e+01    1.606749e+03
  1.830748e+01    1.600925e+03
  1.836060e+01    1.597817e+03
  1.841372e+01    1.594039e+03
  1.846684e+01    1.590555e+03
  1.851995e+01    1.569258e+03
  1.857307e+01    1.556740e+03
  1.862619e+01    1.544971e+03
  1.867931e+01    1.542686e+03
  1.873243e+01    1.561410e+03
  1.878555e+01    1.562941e+03
  1.883866e+01    1.562160e+03
  1.889178e+01    1.561439e+03
  1.894490e+01    1.573671e+03
  1.899802e+01    1.564562e+03
  1.905114e+01    1.560064e+03
  1.910425e+01    1.551941e+03
  1.915737e+01    1.548869e+03
  1.921049e+01    1.544840e+03
  1.926361e+01    1.540568e+03
  1.931673e+01    1.538144e+03
  1.936985e+01    1.535912e+03
  1.942296e+01    1.533128e+03
  1.947608e+01    1.533148e+03
  1.952920e+01    1.529075e+03
  1.958232e+01    1.530427e+03
  1.963544e+01    1.535465e+03
  1.968855e+01    1.520643e+03
  1.974167e+01    1.509406e+03
  1.979479e+01    1.513665e+03
  1.984791e+01    1.511902e+03
  1.990103e+01    1.509206e+03
  1.995414e+01    1.507108e+03
  2.000726e+01    1.505365e+03
  2.006038e+01    1.500930e+03
  2.011350e+01    1.500292e+03
  2.016662e+01    1.491177e+03
  2.021974e+01    1.494199e+03
  2.027285e+01    1.501778e+03
  2.032597e+01    1.485923e+03
  2.037909e+01    1.481720e+03
  2.043221e+01    1.477396e+03
  2.048533e+01    1.474249e+03
  2.053844e+01    1.473451e+03
  2.059156e+01    1.468200e+03
  2.064468e+01    1.464682e+03
  2.069780e+01    1.445680e+03
  2.075092e+01    1.421486e+03
  2.080404e+01    1.407905e+03
  2.085715e+01    1.427188e+03
  2.091027e+01    1.454179e+03
  2.096339e+01    1.461202e+03
  2.101651e+01    1.464583e+03
  2.106963e+01    1.467834e+03
  2.112274e+01    1.473012e+03
  2.117586e+01    1.473970e+03
  2.122898e+01    1.476785e+03
  2.128210e+01    1.474165e+03
  2.133522e+01    1.475574e+03
  2.138834e+01    1.477777e+03
  2.144145e+01    1.478476e+03
  2.149457e+01    1.473329e+03
  2.154769e+01    1.471475e+03
  2.160081e+01    1.470510e+03
  2.165393e+01    1.471938e+03
  2.170704e+01    1.471586e+03
  2.176016e+01    1.461846e+03
  2.181328e+01    1.469773e+03
  2.186640e+01    1.471563e+03
  2.191952e+01    1.470285e+03
  2.197263e+01    1.467241e+03
  2.202575e+01    1.464719e+03
  2.207887e+01    1.465251e+03
  2.213199e+01    1.462670e+03
  2.218511e+01    1.463747e+03
  2.223823e+01    1.461850e+03
  2.229134e+01    1.459869e+03
  2.234446e+01    1.459294e+03
  2.239758e+01    1.459719e+03
  2.245070e+01    1.455573e+03
  2.250382e+01    1.456909e+03
  2.255693e+01    1.453918e+03
  2.261005e+01    1.434909e+03
  2.266317e+01    1.422053e+03
  2.271629e+01    1.414655e+03
  2.276941e+01    1.405993e+03
  2.282253e+01    1.398225e+03
  2.287564e+01    1.391813e+03
  2.292876e+01    1.388713e+03
  2.298188e+01    1.386371e+03
  2.303500e+01    1.383825e+03
  2.308812e+01    1.379800e+03
  2.314123e+01    1.377105e+03
  2.319435e+01    1.374923e+03
  2.324747e+01    1.367602e+03
  2.330059e+01    1.363327e+03
  2.335371e+01    1.362207e+03
  2.340683e+01    1.356646e+03
  2.345994e+01    1.354010e+03
  2.351306e+01    1.350836e+03
  2.356618e+01    1.346569e+03
  2.361930e+01    1.339895e+03
  2.367242e+01    1.337042e+03
  2.372553e+01    1.330480e+03
  2.377865e+01    1.325238e+03
  2.383177e+01    1.321317e+03
  2.388489e+01    1.317360e+03
  2.393801e+01    1.313197e+03
  2.399113e+01    1.310616e+03
  2.404424e+01    1.310495e+03
  2.409736e+01    1.306756e+03
  2.415048e+01    1.303742e+03
  2.420360e+01    1.298865e+03
  2.425672e+01    1.295527e+03
  2.430983e+01    1.292380e+03
  2.436295e+01    1.291604e+03
  2.441607e+01    1.289543e+03
  2.446919e+01    1.285147e+03
  2.452231e+01    1.284443e+03
  2.457542e+01    1.283237e+03
  2.462854e+01    1.278750e+03
  2.468166e+01    1.279908e+03
  2.473478e+01    1.275648e+03
  2.478790e+01    1.269139e+03
  2.484102e+01    1.267248e+03
  2.489413e+01    1.260026e+03
  2.494725e+01    1.255644e+03
  2.500037e+01    1.254254e+03
  2.505349e+01    1.246138e+03
  2.510661e+01    1.242332e+03
  2.515972e+01    1.238971e+03
  2.521284e+01    1.240058e+03
  2.526596e+01    1.236383e+03
  2.531908e+01    1.230446e+03
  2.537220e+01    1.228739e+03
  2.542532e+01    1.223453e+03
  2.547843e+01    1.222376e+03
  2.553155e+01    1.219949e+03
  2.558467e+01    1.211464e+03
  2.563779e+01    1.204975e+03
  2.569091e+01    1.200042e+03
  2.574402e+01    1.190402e+03
  2.579714e+01    1.184428e+03
  2.585026e+01    1.174898e+03
  2.590338e+01    1.171139e+03
  2.595650e+01    1.166473e+03
  2.600962e+01    1.165547e+03
  2.606273e+01    1.165147e+03
  2.611585e+01    1.166697e+03
  2.616897e+01    1.166548e+03
  2.622209e+01    1.162877e+03
  2.627521e+01    1.162090e+03
  2.632832e+01    1.152560e+03
  2.638144e+01    1.144109e+03
  2.643456e+01    1.151156e+03
  2.648768e+01    1.130892e+03
  2.654080e+01    1.133484e+03
