# == pyFAI calibration ==
# Distance Sample to Detector: 0.2946421923531691 m
# PONI: 2.875e-01, 2.439e-01 m
# Rotations: -0.010990 -0.009181 0.000003 rad
# 
# == Fit2d calibration ==
# Distance Sample-beamCenter: 294.672 mm
# Center: x=1436.809, y=1655.851 pix
# Tilt: 0.820 deg  TiltPlanRot: -39.874 deg
# 
# Detector Pilatus 2M	 PixelSize= 1.720e-04, 1.720e-04 m
#    Detector has a mask: True 
#    Detector has a dark current: False 
#    detector has a flat field: False 
# 
# Wavelength: 2.0732883349524408e-11 m
# Mask applied: from detector
# Dark current applied: False
# Flat field applied: False
# Polarization factor: None
# Normalization factor: 1.0
# --> /gpfs/current/raw/FMue_3/FMue_3_20231024_175355_00003.dat
#        q_A^-1             I 
  3.483473e-02             nan
  8.795289e-02             nan
  1.410711e-01             nan
  1.941892e-01             nan
  2.473074e-01             nan
  3.004255e-01             nan
  3.535437e-01             nan
  4.066619e-01    9.517309e+03
  4.597800e-01    9.078758e+03
  5.128982e-01    8.160178e+03
  5.660163e-01    7.830765e+03
  6.191345e-01    7.861417e+03
  6.722527e-01    8.009864e+03
  7.253708e-01    8.371938e+03
  7.784890e-01    1.351785e+04
  8.316071e-01    2.717149e+04
  8.847253e-01    1.663529e+04
  9.378435e-01    9.366450e+03
  9.909616e-01    9.931080e+03
  1.044080e+00    1.012827e+04
  1.097198e+00    9.934807e+03
  1.150316e+00    1.031821e+04
  1.203434e+00    1.100412e+04
  1.256552e+00    1.201866e+04
  1.309671e+00    1.300487e+04
  1.362789e+00    1.385473e+04
  1.415907e+00    1.454313e+04
  1.469025e+00    1.477174e+04
  1.522143e+00    1.470967e+04
  1.575261e+00    1.424289e+04
  1.628380e+00    1.622380e+04
  1.681498e+00    1.807193e+04
  1.734616e+00    1.269046e+04
  1.787734e+00    1.059720e+04
  1.840852e+00    9.839012e+03
  1.893970e+00    9.303106e+03
  1.947089e+00    9.210469e+03
  2.000207e+00    8.862759e+03
  2.053325e+00    8.133231e+03
  2.106443e+00    7.885599e+03
  2.159561e+00    8.007882e+03
  2.212679e+00    8.177981e+03
  2.265797e+00    8.400688e+03
  2.318916e+00    8.271961e+03
  2.372034e+00    8.786625e+03
  2.425152e+00    1.352123e+04
  2.478270e+00    9.608329e+03
  2.531388e+00    8.128661e+03
  2.584506e+00    8.917382e+03
  2.637625e+00    8.817494e+03
  2.690743e+00    9.128168e+03
  2.743861e+00    1.263552e+04
  2.796979e+00    8.386168e+03
  2.850097e+00    5.883237e+03
  2.903215e+00    5.438016e+03
  2.956334e+00    5.260477e+03
  3.009452e+00    5.361890e+03
  3.062570e+00    6.194879e+03
  3.115688e+00    7.851641e+03
  3.168806e+00    8.867044e+03
  3.221924e+00    1.063158e+04
  3.275043e+00    1.013670e+04
  3.328161e+00    6.306644e+03
  3.381279e+00    6.010246e+03
  3.434397e+00    5.381330e+03
  3.487515e+00    5.064560e+03
  3.540633e+00    4.995004e+03
  3.593751e+00    5.092851e+03
  3.646870e+00    6.287792e+03
  3.699988e+00    5.637378e+03
  3.753106e+00    4.954482e+03
  3.806224e+00    5.117652e+03
  3.859342e+00    5.898855e+03
  3.912460e+00    5.652437e+03
  3.965579e+00    5.156071e+03
  4.018697e+00    5.457602e+03
  4.071815e+00    7.353030e+03
  4.124933e+00    8.152659e+03
  4.178051e+00    8.759472e+03
  4.231169e+00    6.972929e+03
  4.284288e+00    6.419359e+03
  4.337406e+00    7.308176e+03
  4.390524e+00    7.851368e+03
  4.443642e+00    1.028022e+04
  4.496760e+00    1.203159e+04
  4.549878e+00    9.752501e+03
  4.602997e+00    6.314271e+03
  4.656115e+00    5.225126e+03
  4.709233e+00    5.311868e+03
  4.762351e+00    6.047180e+03
  4.815469e+00    5.768188e+03
  4.868587e+00    5.353497e+03
  4.921705e+00    5.786102e+03
  4.974824e+00    5.700541e+03
  5.027942e+00    5.887767e+03
  5.081060e+00    5.791699e+03
  5.134178e+00    5.266650e+03
  5.187296e+00    5.131625e+03
  5.240414e+00    5.352215e+03
  5.293533e+00    4.979859e+03
  5.346651e+00    4.547947e+03
  5.399769e+00    4.320901e+03
  5.452887e+00    4.434503e+03
  5.506005e+00    4.642028e+03
  5.559123e+00    4.128450e+03
  5.612242e+00    3.941489e+03
  5.665360e+00    3.884454e+03
  5.718478e+00    3.571449e+03
  5.771596e+00    3.568196e+03
  5.824714e+00    3.715762e+03
  5.877832e+00    3.689527e+03
  5.930951e+00    3.732070e+03
  5.984069e+00    3.891489e+03
  6.037187e+00    3.794867e+03
  6.090305e+00    3.793756e+03
  6.143423e+00    3.745845e+03
  6.196541e+00    3.723737e+03
  6.249660e+00    4.214946e+03
  6.302778e+00    4.397812e+03
  6.355896e+00    4.002024e+03
  6.409014e+00    4.176979e+03
  6.462132e+00    4.071372e+03
  6.515250e+00    3.921076e+03
  6.568368e+00    3.722582e+03
  6.621487e+00    3.719198e+03
  6.674605e+00    3.689743e+03
  6.727723e+00    3.478995e+03
  6.780841e+00    3.395845e+03
  6.833959e+00    3.475522e+03
  6.887077e+00    3.414328e+03
  6.940196e+00    3.381984e+03
  6.993314e+00    3.478463e+03
  7.046432e+00    3.444246e+03
  7.099550e+00    3.712546e+03
  7.152668e+00    3.814146e+03
  7.205786e+00    3.487995e+03
  7.258905e+00    3.383675e+03
  7.312023e+00    3.249019e+03
  7.365141e+00    3.165362e+03
  7.418259e+00    3.130972e+03
  7.471377e+00    3.136016e+03
  7.524495e+00    3.247539e+03
  7.577614e+00    3.271921e+03
  7.630732e+00    3.329473e+03
  7.683850e+00    3.536451e+03
  7.736968e+00    3.719959e+03
  7.790086e+00    3.776338e+03
  7.843204e+00    3.700405e+03
  7.896322e+00    3.339396e+03
  7.949441e+00    3.089009e+03
  8.002559e+00    3.019604e+03
  8.055677e+00    2.998971e+03
  8.108795e+00    3.022120e+03
  8.161913e+00    3.157679e+03
  8.215031e+00    3.343332e+03
  8.268150e+00    3.184433e+03
  8.321268e+00    3.024569e+03
  8.374386e+00    3.067167e+03
  8.427504e+00    3.016556e+03
  8.480622e+00    2.967450e+03
  8.533740e+00    3.013550e+03
  8.586859e+00    3.074814e+03
  8.639977e+00    3.057721e+03
  8.693095e+00    2.999568e+03
  8.746213e+00    2.962188e+03
  8.799331e+00    2.951762e+03
  8.852449e+00    2.914334e+03
  8.905568e+00    2.879490e+03
  8.958686e+00    2.946504e+03
  9.011804e+00    2.959373e+03
  9.064922e+00    2.902853e+03
  9.118040e+00    2.771570e+03
  9.171158e+00    2.755222e+03
  9.224276e+00    2.794454e+03
  9.277395e+00    2.749452e+03
  9.330513e+00    2.703878e+03
  9.383631e+00    2.701696e+03
  9.436749e+00    2.679088e+03
  9.489867e+00    2.696812e+03
  9.542985e+00    2.711579e+03
  9.596104e+00    2.722315e+03
  9.649222e+00    2.677376e+03
  9.702340e+00    2.638278e+03
  9.755458e+00    2.655675e+03
  9.808576e+00    2.616652e+03
  9.861694e+00    2.601025e+03
  9.914813e+00    2.608312e+03
  9.967931e+00    2.617759e+03
  1.002105e+01    2.603501e+03
  1.007417e+01    2.564924e+03
  1.012729e+01    2.504197e+03
  1.018040e+01    2.494942e+03
  1.023352e+01    2.496860e+03
  1.028664e+01    2.482449e+03
  1.033976e+01    2.506108e+03
  1.039288e+01    2.516795e+03
  1.044599e+01    2.486129e+03
  1.049911e+01    2.490522e+03
  1.055223e+01    2.487844e+03
  1.060535e+01    2.469886e+03
  1.065847e+01    2.449563e+03
  1.071158e+01    2.439673e+03
  1.076470e+01    2.425460e+03
  1.081782e+01    2.453429e+03
  1.087094e+01    2.481402e+03
  1.092406e+01    2.462200e+03
  1.097718e+01    2.447257e+03
  1.103029e+01    2.409909e+03
  1.108341e+01    2.384760e+03
  1.113653e+01    2.385059e+03
  1.118965e+01    2.365054e+03
  1.124277e+01    2.354005e+03
  1.129588e+01    2.349126e+03
  1.134900e+01    2.352768e+03
  1.140212e+01    2.330372e+03
  1.145524e+01    2.302747e+03
  1.150836e+01    2.295104e+03
  1.156148e+01    2.304000e+03
  1.161459e+01    2.320474e+03
  1.166771e+01    2.304903e+03
  1.172083e+01    2.320847e+03
  1.177395e+01    2.310876e+03
  1.182707e+01    2.314804e+03
  1.188018e+01    2.327724e+03
  1.193330e+01    2.326449e+03
  1.198642e+01    2.308087e+03
  1.203954e+01    2.276581e+03
  1.209266e+01    2.264301e+03
  1.214578e+01    2.255120e+03
  1.219889e+01    2.255083e+03
  1.225201e+01    2.261090e+03
  1.230513e+01    2.282452e+03
  1.235825e+01    2.287167e+03
  1.241137e+01    2.266426e+03
  1.246448e+01    2.258019e+03
  1.251760e+01    2.266251e+03
  1.257072e+01    2.265625e+03
  1.262384e+01    2.261525e+03
  1.267696e+01    2.244708e+03
  1.273008e+01    2.237260e+03
  1.278319e+01    2.217915e+03
  1.283631e+01    2.196885e+03
  1.288943e+01    2.189134e+03
  1.294255e+01    2.176332e+03
  1.299567e+01    2.172980e+03
  1.304878e+01    2.163360e+03
  1.310190e+01    2.157479e+03
  1.315502e+01    2.161248e+03
  1.320814e+01    2.139495e+03
  1.326126e+01    2.104616e+03
  1.331437e+01    2.086139e+03
  1.336749e+01    2.070630e+03
  1.342061e+01    2.055118e+03
  1.347373e+01    2.079844e+03
  1.352685e+01    2.084554e+03
  1.357997e+01    2.078077e+03
  1.363308e+01    2.070647e+03
  1.368620e+01    2.060128e+03
  1.373932e+01    2.042449e+03
  1.379244e+01    2.028545e+03
  1.384556e+01    2.022226e+03
  1.389867e+01    2.020160e+03
  1.395179e+01    2.015991e+03
  1.400491e+01    2.016694e+03
  1.405803e+01    2.010275e+03
  1.411115e+01    1.999629e+03
  1.416427e+01    1.994028e+03
  1.421738e+01    1.995729e+03
  1.427050e+01    1.988099e+03
  1.432362e+01    1.989312e+03
  1.437674e+01    1.991494e+03
  1.442986e+01    1.984213e+03
  1.448297e+01    1.973047e+03
  1.453609e+01    1.963410e+03
  1.458921e+01    1.953002e+03
  1.464233e+01    1.947762e+03
  1.469545e+01    1.942857e+03
  1.474857e+01    1.927297e+03
  1.480168e+01    1.945404e+03
  1.485480e+01    1.940938e+03
  1.490792e+01    1.933196e+03
  1.496104e+01    1.921642e+03
  1.501416e+01    1.918968e+03
  1.506727e+01    1.911776e+03
  1.512039e+01    1.908410e+03
  1.517351e+01    1.922235e+03
  1.522663e+01    1.932699e+03
  1.527975e+01    1.928725e+03
  1.533286e+01    1.916436e+03
  1.538598e+01    1.904461e+03
  1.543910e+01    1.892228e+03
  1.549222e+01    1.889284e+03
  1.554534e+01    1.893689e+03
  1.559846e+01    1.892115e+03
  1.565157e+01    1.884508e+03
  1.570469e+01    1.876483e+03
  1.575781e+01    1.872643e+03
  1.581093e+01    1.867159e+03
  1.586405e+01    1.863853e+03
  1.591716e+01    1.859221e+03
  1.597028e+01    1.851652e+03
  1.602340e+01    1.834627e+03
  1.607652e+01    1.822061e+03
  1.612964e+01    1.796425e+03
  1.618276e+01    1.786974e+03
  1.623587e+01    1.789982e+03
  1.628899e+01    1.806222e+03
  1.634211e+01    1.805689e+03
  1.639523e+01    1.801847e+03
  1.644835e+01    1.804216e+03
  1.650146e+01    1.799786e+03
  1.655458e+01    1.800459e+03
  1.660770e+01    1.796396e+03
  1.666082e+01    1.789096e+03
  1.671394e+01    1.787354e+03
  1.676706e+01    1.782675e+03
  1.682017e+01    1.794717e+03
  1.687329e+01    1.781631e+03
  1.692641e+01    1.777660e+03
  1.697953e+01    1.773703e+03
  1.703265e+01    1.769455e+03
  1.708576e+01    1.767657e+03
  1.713888e+01    1.759201e+03
  1.719200e+01    1.758007e+03
  1.724512e+01    1.749251e+03
  1.729824e+01    1.748644e+03
  1.735136e+01    1.741689e+03
  1.740447e+01    1.718768e+03
  1.745759e+01    1.725877e+03
  1.751071e+01    1.726381e+03
  1.756383e+01    1.736505e+03
  1.761695e+01    1.718975e+03
  1.767006e+01    1.717025e+03
  1.772318e+01    1.705519e+03
  1.777630e+01    1.705856e+03
  1.782942e+01    1.698969e+03
  1.788254e+01    1.695661e+03
  1.793565e+01    1.692720e+03
  1.798877e+01    1.690828e+03
  1.804189e+01    1.682728e+03
  1.809501e+01    1.676787e+03
  1.814813e+01    1.674730e+03
  1.820125e+01    1.668643e+03
  1.825436e+01    1.675157e+03
  1.830748e+01    1.668986e+03
  1.836060e+01    1.664946e+03
  1.841372e+01    1.662378e+03
  1.846684e+01    1.658637e+03
  1.851995e+01    1.637128e+03
  1.857307e+01    1.623066e+03
  1.862619e+01    1.610374e+03
  1.867931e+01    1.609041e+03
  1.873243e+01    1.628780e+03
  1.878555e+01    1.632354e+03
  1.883866e+01    1.631710e+03
  1.889178e+01    1.632238e+03
  1.894490e+01    1.642247e+03
  1.899802e+01    1.632145e+03
  1.905114e+01    1.627720e+03
  1.910425e+01    1.620656e+03
  1.915737e+01    1.615856e+03
  1.921049e+01    1.611504e+03
  1.926361e+01    1.606861e+03
  1.931673e+01    1.604842e+03
  1.936985e+01    1.603209e+03
  1.942296e+01    1.600043e+03
  1.947608e+01    1.599828e+03
  1.952920e+01    1.597266e+03
  1.958232e+01    1.596388e+03
  1.963544e+01    1.601868e+03
  1.968855e+01    1.586266e+03
  1.974167e+01    1.573373e+03
  1.979479e+01    1.579422e+03
  1.984791e+01    1.576904e+03
  1.990103e+01    1.575555e+03
  1.995414e+01    1.573113e+03
  2.000726e+01    1.570857e+03
  2.006038e+01    1.566317e+03
  2.011350e+01    1.561607e+03
  2.016662e+01    1.557012e+03
  2.021974e+01    1.559146e+03
  2.027285e+01    1.565541e+03
  2.032597e+01    1.550480e+03
  2.037909e+01    1.545266e+03
  2.043221e+01    1.540807e+03
  2.048533e+01    1.538981e+03
  2.053844e+01    1.539117e+03
  2.059156e+01    1.533288e+03
  2.064468e+01    1.531208e+03
  2.069780e+01    1.509791e+03
  2.075092e+01    1.484014e+03
  2.080404e+01    1.469707e+03
  2.085715e+01    1.488552e+03
  2.091027e+01    1.517338e+03
  2.096339e+01    1.525909e+03
  2.101651e+01    1.530204e+03
  2.106963e+01    1.534241e+03
  2.112274e+01    1.538425e+03
  2.117586e+01    1.539112e+03
  2.122898e+01    1.542886e+03
  2.128210e+01    1.539302e+03
  2.133522e+01    1.541648e+03
  2.138834e+01    1.538429e+03
  2.144145e+01    1.537467e+03
  2.149457e+01    1.538448e+03
  2.154769e+01    1.537119e+03
  2.160081e+01    1.538015e+03
  2.165393e+01    1.538172e+03
  2.170704e+01    1.539342e+03
  2.176016e+01    1.527399e+03
  2.181328e+01    1.536551e+03
  2.186640e+01    1.536483e+03
  2.191952e+01    1.535276e+03
  2.197263e+01    1.532634e+03
  2.202575e+01    1.529302e+03
  2.207887e+01    1.530248e+03
  2.213199e+01    1.527606e+03
  2.218511e+01    1.526529e+03
  2.223823e+01    1.524760e+03
  2.229134e+01    1.523406e+03
  2.234446e+01    1.522726e+03
  2.239758e+01    1.521908e+03
  2.245070e+01    1.518904e+03
  2.250382e+01    1.522156e+03
  2.255693e+01    1.518627e+03
  2.261005e+01    1.498792e+03
  2.266317e+01    1.486097e+03
  2.271629e+01    1.476980e+03
  2.276941e+01    1.467738e+03
  2.282253e+01    1.459985e+03
  2.287564e+01    1.454575e+03
  2.292876e+01    1.450359e+03
  2.298188e+01    1.447372e+03
  2.303500e+01    1.443868e+03
  2.308812e+01    1.440723e+03
  2.314123e+01    1.439449e+03
  2.319435e+01    1.434387e+03
  2.324747e+01    1.428974e+03
  2.330059e+01    1.424368e+03
  2.335371e+01    1.420262e+03
  2.340683e+01    1.417781e+03
  2.345994e+01    1.413955e+03
  2.351306e+01    1.409854e+03
  2.356618e+01    1.406916e+03
  2.361930e+01    1.399076e+03
  2.367242e+01    1.394263e+03
  2.372553e+01    1.388592e+03
  2.377865e+01    1.384555e+03
  2.383177e+01    1.380807e+03
  2.388489e+01    1.372737e+03
  2.393801e+01    1.369119e+03
  2.399113e+01    1.369415e+03
  2.404424e+01    1.366937e+03
  2.409736e+01    1.364054e+03
  2.415048e+01    1.361339e+03
  2.420360e+01    1.355451e+03
  2.425672e+01    1.352792e+03
  2.430983e+01    1.350955e+03
  2.436295e+01    1.348689e+03
  2.441607e+01    1.345369e+03
  2.446919e+01    1.344819e+03
  2.452231e+01    1.341871e+03
  2.457542e+01    1.340538e+03
  2.462854e+01    1.336211e+03
  2.468166e+01    1.334903e+03
  2.473478e+01    1.328805e+03
  2.478790e+01    1.323206e+03
  2.484102e+01    1.321455e+03
  2.489413e+01    1.318725e+03
  2.494725e+01    1.311745e+03
  2.500037e+01    1.307275e+03
  2.505349e+01    1.299203e+03
  2.510661e+01    1.296812e+03
  2.515972e+01    1.293886e+03
  2.521284e+01    1.293402e+03
  2.526596e+01    1.293769e+03
  2.531908e+01    1.285226e+03
  2.537220e+01    1.285465e+03
  2.542532e+01    1.282085e+03
  2.547843e+01    1.277875e+03
  2.553155e+01    1.273243e+03
  2.558467e+01    1.268204e+03
  2.563779e+01    1.257548e+03
  2.569091e+01    1.255384e+03
  2.574402e+01    1.243844e+03
  2.579714e+01    1.238394e+03
  2.585026e+01    1.227338e+03
  2.590338e+01    1.224672e+03
  2.595650e+01    1.221464e+03
  2.600962e+01    1.216429e+03
  2.606273e+01    1.216606e+03
  2.611585e+01    1.215896e+03
  2.616897e+01    1.215341e+03
  2.622209e+01    1.208740e+03
  2.627521e+01    1.210420e+03
  2.632832e+01    1.201594e+03
  2.638144e+01    1.202778e+03
  2.643456e+01    1.198711e+03
  2.648768e+01    1.177228e+03
  2.654080e+01    1.155263e+03
