# == pyFAI calibration ==
# Distance Sample to Detector: 0.2946421923531691 m
# PONI: 2.875e-01, 2.439e-01 m
# Rotations: -0.010990 -0.009181 0.000003 rad
# 
# == Fit2d calibration ==
# Distance Sample-beamCenter: 294.672 mm
# Center: x=1436.809, y=1655.851 pix
# Tilt: 0.820 deg  TiltPlanRot: -39.874 deg
# 
# Detector Pilatus 2M	 PixelSize= 1.720e-04, 1.720e-04 m
#    Detector has a mask: True 
#    Detector has a dark current: False 
#    detector has a flat field: False 
# 
# Wavelength: 2.0732883349524408e-11 m
# Mask applied: from detector
# Dark current applied: False
# Flat field applied: False
# Polarization factor: None
# Normalization factor: 1.0
# --> /gpfs/current/raw/FMue_3/FMue_3_20231024_175355_00199.dat
#        q_A^-1             I 
  3.483473e-02             nan
  8.795289e-02             nan
  1.410711e-01             nan
  1.941892e-01             nan
  2.473074e-01             nan
  3.004255e-01             nan
  3.535437e-01             nan
  4.066619e-01    1.126900e+04
  4.597800e-01    1.032053e+04
  5.128982e-01    8.816377e+03
  5.660163e-01    8.056542e+03
  6.191345e-01    7.772832e+03
  6.722527e-01    7.693535e+03
  7.253708e-01    7.754520e+03
  7.784890e-01    7.816328e+03
  8.316071e-01    7.971541e+03
  8.847253e-01    8.095356e+03
  9.378435e-01    8.284914e+03
  9.909616e-01    8.496071e+03
  1.044080e+00    8.821613e+03
  1.097198e+00    9.247791e+03
  1.150316e+00    9.847563e+03
  1.203434e+00    1.056025e+04
  1.256552e+00    1.143501e+04
  1.309671e+00    1.260282e+04
  1.362789e+00    1.368669e+04
  1.415907e+00    1.412348e+04
  1.469025e+00    1.422446e+04
  1.522143e+00    1.410185e+04
  1.575261e+00    1.352890e+04
  1.628380e+00    1.280295e+04
  1.681498e+00    1.187364e+04
  1.734616e+00    1.092610e+04
  1.787734e+00    1.009288e+04
  1.840852e+00    9.388312e+03
  1.893970e+00    8.804661e+03
  1.947089e+00    8.398315e+03
  2.000207e+00    8.088525e+03
  2.053325e+00    7.991234e+03
  2.106443e+00    8.465406e+03
  2.159561e+00    9.590013e+03
  2.212679e+00    9.852998e+03
  2.265797e+00    9.264410e+03
  2.318916e+00    8.489461e+03
  2.372034e+00    7.779810e+03
  2.425152e+00    8.010963e+03
  2.478270e+00    9.471999e+03
  2.531388e+00    1.299201e+04
  2.584506e+00    1.405687e+04
  2.637625e+00    1.062004e+04
  2.690743e+00    8.406496e+03
  2.743861e+00    7.584070e+03
  2.796979e+00    6.340938e+03
  2.850097e+00    5.466027e+03
  2.903215e+00    5.165060e+03
  2.956334e+00    5.095111e+03
  3.009452e+00    5.437242e+03
  3.062570e+00    6.953018e+03
  3.115688e+00    9.217934e+03
  3.168806e+00    8.925946e+03
  3.221924e+00    7.196626e+03
  3.275043e+00    5.679866e+03
  3.328161e+00    4.840932e+03
  3.381279e+00    4.626906e+03
  3.434397e+00    4.629992e+03
  3.487515e+00    4.710659e+03
  3.540633e+00    4.633582e+03
  3.593751e+00    4.553788e+03
  3.646870e+00    4.611919e+03
  3.699988e+00    4.783814e+03
  3.753106e+00    5.115220e+03
  3.806224e+00    5.360077e+03
  3.859342e+00    5.351097e+03
  3.912460e+00    5.584495e+03
  3.965579e+00    6.460522e+03
  4.018697e+00    7.468994e+03
  4.071815e+00    7.411522e+03
  4.124933e+00    6.746252e+03
  4.178051e+00    6.305171e+03
  4.231169e+00    6.153900e+03
  4.284288e+00    6.535672e+03
  4.337406e+00    8.247229e+03
  4.390524e+00    1.048198e+04
  4.443642e+00    1.192872e+04
  4.496760e+00    1.208534e+04
  4.549878e+00    8.425733e+03
  4.602997e+00    5.849207e+03
  4.656115e+00    5.231492e+03
  4.709233e+00    5.031749e+03
  4.762351e+00    4.979358e+03
  4.815469e+00    5.041917e+03
  4.868587e+00    5.177091e+03
  4.921705e+00    5.245775e+03
  4.974824e+00    5.324542e+03
  5.027942e+00    5.482312e+03
  5.081060e+00    5.687070e+03
  5.134178e+00    5.476816e+03
  5.187296e+00    5.017528e+03
  5.240414e+00    4.634378e+03
  5.293533e+00    4.437390e+03
  5.346651e+00    4.355578e+03
  5.399769e+00    4.272142e+03
  5.452887e+00    4.235950e+03
  5.506005e+00    4.112171e+03
  5.559123e+00    3.760386e+03
  5.612242e+00    3.584294e+03
  5.665360e+00    3.547395e+03
  5.718478e+00    3.541032e+03
  5.771596e+00    3.604122e+03
  5.824714e+00    3.690049e+03
  5.877832e+00    3.868784e+03
  5.930951e+00    4.149940e+03
  5.984069e+00    4.165726e+03
  6.037187e+00    3.931317e+03
  6.090305e+00    3.755230e+03
  6.143423e+00    3.733036e+03
  6.196541e+00    3.885188e+03
  6.249660e+00    3.993204e+03
  6.302778e+00    3.857802e+03
  6.355896e+00    3.598969e+03
  6.409014e+00    3.502717e+03
  6.462132e+00    3.440472e+03
  6.515250e+00    3.401595e+03
  6.568368e+00    3.434201e+03
  6.621487e+00    3.499630e+03
  6.674605e+00    3.628885e+03
  6.727723e+00    3.682873e+03
  6.780841e+00    3.502351e+03
  6.833959e+00    3.310295e+03
  6.887077e+00    3.227323e+03
  6.940196e+00    3.200033e+03
  6.993314e+00    3.221508e+03
  7.046432e+00    3.224080e+03
  7.099550e+00    3.153854e+03
  7.152668e+00    3.094689e+03
  7.205786e+00    3.048211e+03
  7.258905e+00    3.041132e+03
  7.312023e+00    3.108176e+03
  7.365141e+00    3.214811e+03
  7.418259e+00    3.253005e+03
  7.471377e+00    3.244793e+03
  7.524495e+00    3.323963e+03
  7.577614e+00    3.472230e+03
  7.630732e+00    3.492703e+03
  7.683850e+00    3.505955e+03
  7.736968e+00    3.576140e+03
  7.790086e+00    3.479684e+03
  7.843204e+00    3.310988e+03
  7.896322e+00    3.195125e+03
  7.949441e+00    3.162054e+03
  8.002559e+00    3.178116e+03
  8.055677e+00    3.133777e+03
  8.108795e+00    3.051745e+03
  8.161913e+00    3.000139e+03
  8.215031e+00    2.957881e+03
  8.268150e+00    2.913552e+03
  8.321268e+00    2.877082e+03
  8.374386e+00    2.857961e+03
  8.427504e+00    2.838940e+03
  8.480622e+00    2.833620e+03
  8.533740e+00    2.790822e+03
  8.586859e+00    2.823667e+03
  8.639977e+00    2.811431e+03
  8.693095e+00    2.797488e+03
  8.746213e+00    2.808167e+03
  8.799331e+00    2.795519e+03
  8.852449e+00    2.770411e+03
  8.905568e+00    2.772857e+03
  8.958686e+00    2.772645e+03
  9.011804e+00    2.768074e+03
  9.064922e+00    2.726697e+03
  9.118040e+00    2.701495e+03
  9.171158e+00    2.680554e+03
  9.224276e+00    2.633251e+03
  9.277395e+00    2.584618e+03
  9.330513e+00    2.554450e+03
  9.383631e+00    2.528957e+03
  9.436749e+00    2.517208e+03
  9.489867e+00    2.532733e+03
  9.542985e+00    2.544620e+03
  9.596104e+00    2.545615e+03
  9.649222e+00    2.555534e+03
  9.702340e+00    2.541983e+03
  9.755458e+00    2.528763e+03
  9.808576e+00    2.523741e+03
  9.861694e+00    2.518472e+03
  9.914813e+00    2.503194e+03
  9.967931e+00    2.479681e+03
  1.002105e+01    2.456136e+03
  1.007417e+01    2.438382e+03
  1.012729e+01    2.422820e+03
  1.018040e+01    2.401649e+03
  1.023352e+01    2.361269e+03
  1.028664e+01    2.325947e+03
  1.033976e+01    2.308691e+03
  1.039288e+01    2.332682e+03
  1.044599e+01    2.321989e+03
  1.049911e+01    2.325645e+03
  1.055223e+01    2.317246e+03
  1.060535e+01    2.317321e+03
  1.065847e+01    2.306096e+03
  1.071158e+01    2.295197e+03
  1.076470e+01    2.286135e+03
  1.081782e+01    2.283938e+03
  1.087094e+01    2.275678e+03
  1.092406e+01    2.290119e+03
  1.097718e+01    2.294273e+03
  1.103029e+01    2.293801e+03
  1.108341e+01    2.282460e+03
  1.113653e+01    2.262248e+03
  1.118965e+01    2.240135e+03
  1.124277e+01    2.227513e+03
  1.129588e+01    2.220577e+03
  1.134900e+01    2.218591e+03
  1.140212e+01    2.227006e+03
  1.145524e+01    2.230119e+03
  1.150836e+01    2.237632e+03
  1.156148e+01    2.234475e+03
  1.161459e+01    2.236710e+03
  1.166771e+01    2.215946e+03
  1.172083e+01    2.214995e+03
  1.177395e+01    2.198080e+03
  1.182707e+01    2.190308e+03
  1.188018e+01    2.192342e+03
  1.193330e+01    2.175593e+03
  1.198642e+01    2.156581e+03
  1.203954e+01    2.136938e+03
  1.209266e+01    2.133656e+03
  1.214578e+01    2.128805e+03
  1.219889e+01    2.135414e+03
  1.225201e+01    2.138559e+03
  1.230513e+01    2.129095e+03
  1.235825e+01    2.126458e+03
  1.241137e+01    2.108313e+03
  1.246448e+01    2.106735e+03
  1.251760e+01    2.102352e+03
  1.257072e+01    2.099443e+03
  1.262384e+01    2.103974e+03
  1.267696e+01    2.092135e+03
  1.273008e+01    2.076126e+03
  1.278319e+01    2.065965e+03
  1.283631e+01    2.055606e+03
  1.288943e+01    2.049205e+03
  1.294255e+01    2.037661e+03
  1.299567e+01    2.035735e+03
  1.304878e+01    2.030729e+03
  1.310190e+01    2.028271e+03
  1.315502e+01    2.023090e+03
  1.320814e+01    2.001198e+03
  1.326126e+01    1.977906e+03
  1.331437e+01    1.970577e+03
  1.336749e+01    1.964806e+03
  1.342061e+01    1.951627e+03
  1.347373e+01    1.972064e+03
  1.352685e+01    1.968604e+03
  1.357997e+01    1.957566e+03
  1.363308e+01    1.946759e+03
  1.368620e+01    1.941793e+03
  1.373932e+01    1.935015e+03
  1.379244e+01    1.928472e+03
  1.384556e+01    1.920480e+03
  1.389867e+01    1.911585e+03
  1.395179e+01    1.903299e+03
  1.400491e+01    1.900216e+03
  1.405803e+01    1.898584e+03
  1.411115e+01    1.890716e+03
  1.416427e+01    1.881382e+03
  1.421738e+01    1.876373e+03
  1.427050e+01    1.866789e+03
  1.432362e+01    1.868211e+03
  1.437674e+01    1.865143e+03
  1.442986e+01    1.854720e+03
  1.448297e+01    1.849722e+03
  1.453609e+01    1.841228e+03
  1.458921e+01    1.832510e+03
  1.464233e+01    1.828685e+03
  1.469545e+01    1.822422e+03
  1.474857e+01    1.804042e+03
  1.480168e+01    1.814352e+03
  1.485480e+01    1.808182e+03
  1.490792e+01    1.804489e+03
  1.496104e+01    1.797652e+03
  1.501416e+01    1.794914e+03
  1.506727e+01    1.791686e+03
  1.512039e+01    1.787672e+03
  1.517351e+01    1.802035e+03
  1.522663e+01    1.814243e+03
  1.527975e+01    1.811611e+03
  1.533286e+01    1.797458e+03
  1.538598e+01    1.786229e+03
  1.543910e+01    1.778135e+03
  1.549222e+01    1.773825e+03
  1.554534e+01    1.771957e+03
  1.559846e+01    1.770893e+03
  1.565157e+01    1.764166e+03
  1.570469e+01    1.760205e+03
  1.575781e+01    1.756744e+03
  1.581093e+01    1.753084e+03
  1.586405e+01    1.750060e+03
  1.591716e+01    1.744068e+03
  1.597028e+01    1.738727e+03
  1.602340e+01    1.723119e+03
  1.607652e+01    1.711585e+03
  1.612964e+01    1.687609e+03
  1.618276e+01    1.677307e+03
  1.623587e+01    1.678109e+03
  1.628899e+01    1.692405e+03
  1.634211e+01    1.692665e+03
  1.639523e+01    1.685751e+03
  1.644835e+01    1.689764e+03
  1.650146e+01    1.683640e+03
  1.655458e+01    1.682105e+03
  1.660770e+01    1.677822e+03
  1.666082e+01    1.671156e+03
  1.671394e+01    1.671430e+03
  1.676706e+01    1.666838e+03
  1.682017e+01    1.678344e+03
  1.687329e+01    1.667654e+03
  1.692641e+01    1.662409e+03
  1.697953e+01    1.659097e+03
  1.703265e+01    1.653891e+03
  1.708576e+01    1.652092e+03
  1.713888e+01    1.645005e+03
  1.719200e+01    1.643000e+03
  1.724512e+01    1.636380e+03
  1.729824e+01    1.635223e+03
  1.735136e+01    1.627795e+03
  1.740447e+01    1.607426e+03
  1.745759e+01    1.614792e+03
  1.751071e+01    1.617220e+03
  1.756383e+01    1.626708e+03
  1.761695e+01    1.611332e+03
  1.767006e+01    1.608510e+03
  1.772318e+01    1.599704e+03
  1.777630e+01    1.599113e+03
  1.782942e+01    1.590796e+03
  1.788254e+01    1.587412e+03
  1.793565e+01    1.584133e+03
  1.798877e+01    1.582852e+03
  1.804189e+01    1.574774e+03
  1.809501e+01    1.571541e+03
  1.814813e+01    1.568630e+03
  1.820125e+01    1.562787e+03
  1.825436e+01    1.569272e+03
  1.830748e+01    1.561611e+03
  1.836060e+01    1.557364e+03
  1.841372e+01    1.554454e+03
  1.846684e+01    1.550546e+03
  1.851995e+01    1.530075e+03
  1.857307e+01    1.516550e+03
  1.862619e+01    1.507393e+03
  1.867931e+01    1.504317e+03
  1.873243e+01    1.522823e+03
  1.878555e+01    1.524457e+03
  1.883866e+01    1.523926e+03
  1.889178e+01    1.523828e+03
  1.894490e+01    1.534246e+03
  1.899802e+01    1.526199e+03
  1.905114e+01    1.521159e+03
  1.910425e+01    1.515328e+03
  1.915737e+01    1.511176e+03
  1.921049e+01    1.506953e+03
  1.926361e+01    1.502663e+03
  1.931673e+01    1.500012e+03
  1.936985e+01    1.498691e+03
  1.942296e+01    1.495536e+03
  1.947608e+01    1.495182e+03
  1.952920e+01    1.492260e+03
  1.958232e+01    1.493014e+03
  1.963544e+01    1.498584e+03
  1.968855e+01    1.481668e+03
  1.974167e+01    1.472300e+03
  1.979479e+01    1.476056e+03
  1.984791e+01    1.474405e+03
  1.990103e+01    1.472004e+03
  1.995414e+01    1.470796e+03
  2.000726e+01    1.468162e+03
  2.006038e+01    1.464156e+03
  2.011350e+01    1.459483e+03
  2.016662e+01    1.453203e+03
  2.021974e+01    1.456574e+03
  2.027285e+01    1.462688e+03
  2.032597e+01    1.446781e+03
  2.037909e+01    1.442974e+03
  2.043221e+01    1.438303e+03
  2.048533e+01    1.436263e+03
  2.053844e+01    1.434440e+03
  2.059156e+01    1.429372e+03
  2.064468e+01    1.426351e+03
  2.069780e+01    1.408516e+03
  2.075092e+01    1.384734e+03
  2.080404e+01    1.370350e+03
  2.085715e+01    1.389491e+03
  2.091027e+01    1.415631e+03
  2.096339e+01    1.422180e+03
  2.101651e+01    1.425842e+03
  2.106963e+01    1.430758e+03
  2.112274e+01    1.434694e+03
  2.117586e+01    1.435532e+03
  2.122898e+01    1.438231e+03
  2.128210e+01    1.435665e+03
  2.133522e+01    1.436599e+03
  2.138834e+01    1.434408e+03
  2.144145e+01    1.435635e+03
  2.149457e+01    1.434430e+03
  2.154769e+01    1.434313e+03
  2.160081e+01    1.431573e+03
  2.165393e+01    1.433254e+03
  2.170704e+01    1.434943e+03
  2.176016e+01    1.425367e+03
  2.181328e+01    1.432187e+03
  2.186640e+01    1.434052e+03
  2.191952e+01    1.432292e+03
  2.197263e+01    1.430619e+03
  2.202575e+01    1.427326e+03
  2.207887e+01    1.427692e+03
  2.213199e+01    1.424969e+03
  2.218511e+01    1.424209e+03
  2.223823e+01    1.424561e+03
  2.229134e+01    1.423665e+03
  2.234446e+01    1.421875e+03
  2.239758e+01    1.420605e+03
  2.245070e+01    1.418050e+03
  2.250382e+01    1.420503e+03
  2.255693e+01    1.416844e+03
  2.261005e+01    1.398636e+03
  2.266317e+01    1.386307e+03
  2.271629e+01    1.378293e+03
  2.276941e+01    1.369313e+03
  2.282253e+01    1.361751e+03
  2.287564e+01    1.358536e+03
  2.292876e+01    1.352896e+03
  2.298188e+01    1.350877e+03
  2.303500e+01    1.348841e+03
  2.308812e+01    1.344545e+03
  2.314123e+01    1.341881e+03
  2.319435e+01    1.338946e+03
  2.324747e+01    1.331872e+03
  2.330059e+01    1.328869e+03
  2.335371e+01    1.325830e+03
  2.340683e+01    1.321663e+03
  2.345994e+01    1.318758e+03
  2.351306e+01    1.316338e+03
  2.356618e+01    1.310332e+03
  2.361930e+01    1.305054e+03
  2.367242e+01    1.299900e+03
  2.372553e+01    1.292158e+03
  2.377865e+01    1.289657e+03
  2.383177e+01    1.284190e+03
  2.388489e+01    1.279281e+03
  2.393801e+01    1.276469e+03
  2.399113e+01    1.274591e+03
  2.404424e+01    1.274873e+03
  2.409736e+01    1.273941e+03
  2.415048e+01    1.267509e+03
  2.420360e+01    1.266364e+03
  2.425672e+01    1.262750e+03
  2.430983e+01    1.259793e+03
  2.436295e+01    1.258682e+03
  2.441607e+01    1.256487e+03
  2.446919e+01    1.254074e+03
  2.452231e+01    1.251995e+03
  2.457542e+01    1.250084e+03
  2.462854e+01    1.247419e+03
  2.468166e+01    1.245215e+03
  2.473478e+01    1.240087e+03
  2.478790e+01    1.231577e+03
  2.484102e+01    1.231485e+03
  2.489413e+01    1.225518e+03
  2.494725e+01    1.221499e+03
  2.500037e+01    1.219323e+03
  2.505349e+01    1.213880e+03
  2.510661e+01    1.209216e+03
  2.515972e+01    1.208860e+03
  2.521284e+01    1.208315e+03
  2.526596e+01    1.206444e+03
  2.531908e+01    1.200507e+03
  2.537220e+01    1.199525e+03
  2.542532e+01    1.195773e+03
  2.547843e+01    1.195146e+03
  2.553155e+01    1.190751e+03
  2.558467e+01    1.183968e+03
  2.563779e+01    1.175587e+03
  2.569091e+01    1.172515e+03
  2.574402e+01    1.161472e+03
  2.579714e+01    1.156059e+03
  2.585026e+01    1.144604e+03
  2.590338e+01    1.143114e+03
  2.595650e+01    1.140154e+03
  2.600962e+01    1.140955e+03
  2.606273e+01    1.140320e+03
  2.611585e+01    1.141608e+03
  2.616897e+01    1.135572e+03
  2.622209e+01    1.134955e+03
  2.627521e+01    1.128938e+03
  2.632832e+01    1.117703e+03
  2.638144e+01    1.122040e+03
  2.643456e+01    1.113323e+03
  2.648768e+01    1.094177e+03
  2.654080e+01    1.081413e+03
