# == pyFAI calibration ==
# Distance Sample to Detector: 0.2946421923531691 m
# PONI: 2.875e-01, 2.439e-01 m
# Rotations: -0.010990 -0.009181 0.000003 rad
# 
# == Fit2d calibration ==
# Distance Sample-beamCenter: 294.672 mm
# Center: x=1436.809, y=1655.851 pix
# Tilt: 0.820 deg  TiltPlanRot: -39.874 deg
# 
# Detector Pilatus 2M	 PixelSize= 1.720e-04, 1.720e-04 m
#    Detector has a mask: True 
#    Detector has a dark current: False 
#    detector has a flat field: False 
# 
# Wavelength: 2.0732883349524408e-11 m
# Mask applied: from detector
# Dark current applied: False
# Flat field applied: False
# Polarization factor: None
# Normalization factor: 1.0
# --> /gpfs/current/raw/FMue_3/FMue_3_20231024_175355_00115.dat
#        q_A^-1             I 
  3.483473e-02             nan
  8.795289e-02             nan
  1.410711e-01             nan
  1.941892e-01             nan
  2.473074e-01             nan
  3.004255e-01             nan
  3.535437e-01             nan
  4.066619e-01    1.306046e+04
  4.597800e-01    1.195948e+04
  5.128982e-01    1.011934e+04
  5.660163e-01    9.100658e+03
  6.191345e-01    8.662793e+03
  6.722527e-01    8.473118e+03
  7.253708e-01    8.470418e+03
  7.784890e-01    8.481818e+03
  8.316071e-01    8.639694e+03
  8.847253e-01    8.835633e+03
  9.378435e-01    9.256994e+03
  9.909616e-01    9.899735e+03
  1.044080e+00    9.991860e+03
  1.097198e+00    9.857142e+03
  1.150316e+00    1.025652e+04
  1.203434e+00    1.092108e+04
  1.256552e+00    1.179882e+04
  1.309671e+00    1.288075e+04
  1.362789e+00    1.393061e+04
  1.415907e+00    1.444189e+04
  1.469025e+00    1.451919e+04
  1.522143e+00    1.433958e+04
  1.575261e+00    1.372338e+04
  1.628380e+00    1.298644e+04
  1.681498e+00    1.205807e+04
  1.734616e+00    1.110529e+04
  1.787734e+00    1.027882e+04
  1.840852e+00    9.591933e+03
  1.893970e+00    9.094666e+03
  1.947089e+00    9.003165e+03
  2.000207e+00    8.744779e+03
  2.053325e+00    8.271686e+03
  2.106443e+00    8.375852e+03
  2.159561e+00    8.870082e+03
  2.212679e+00    9.137826e+03
  2.265797e+00    9.161703e+03
  2.318916e+00    8.692220e+03
  2.372034e+00    8.015622e+03
  2.425152e+00    8.254818e+03
  2.478270e+00    9.297509e+03
  2.531388e+00    1.123988e+04
  2.584506e+00    1.224733e+04
  2.637625e+00    1.094069e+04
  2.690743e+00    9.207720e+03
  2.743861e+00    8.058131e+03
  2.796979e+00    6.642830e+03
  2.850097e+00    5.670950e+03
  2.903215e+00    5.334936e+03
  2.956334e+00    5.279633e+03
  3.009452e+00    5.577049e+03
  3.062570e+00    6.776704e+03
  3.115688e+00    9.093927e+03
  3.168806e+00    9.328153e+03
  3.221924e+00    7.585111e+03
  3.275043e+00    6.051999e+03
  3.328161e+00    5.359561e+03
  3.381279e+00    5.335282e+03
  3.434397e+00    5.131792e+03
  3.487515e+00    4.919523e+03
  3.540633e+00    4.833516e+03
  3.593751e+00    4.701281e+03
  3.646870e+00    4.719204e+03
  3.699988e+00    4.864710e+03
  3.753106e+00    5.093728e+03
  3.806224e+00    5.256150e+03
  3.859342e+00    5.378195e+03
  3.912460e+00    5.627478e+03
  3.965579e+00    6.095311e+03
  4.018697e+00    6.711814e+03
  4.071815e+00    7.086368e+03
  4.124933e+00    6.907948e+03
  4.178051e+00    6.534535e+03
  4.231169e+00    6.358899e+03
  4.284288e+00    6.695401e+03
  4.337406e+00    7.882448e+03
  4.390524e+00    9.521560e+03
  4.443642e+00    1.176790e+04
  4.496760e+00    1.265704e+04
  4.549878e+00    8.994178e+03
  4.602997e+00    6.051872e+03
  4.656115e+00    5.353853e+03
  4.709233e+00    5.204758e+03
  4.762351e+00    5.275550e+03
  4.815469e+00    5.239054e+03
  4.868587e+00    5.178092e+03
  4.921705e+00    5.218891e+03
  4.974824e+00    5.310064e+03
  5.027942e+00    5.382846e+03
  5.081060e+00    5.484384e+03
  5.134178e+00    5.413124e+03
  5.187296e+00    5.158305e+03
  5.240414e+00    4.835470e+03
  5.293533e+00    4.607697e+03
  5.346651e+00    4.470756e+03
  5.399769e+00    4.379370e+03
  5.452887e+00    4.361658e+03
  5.506005e+00    4.306143e+03
  5.559123e+00    3.953512e+03
  5.612242e+00    3.708014e+03
  5.665360e+00    3.623218e+03
  5.718478e+00    3.555099e+03
  5.771596e+00    3.547153e+03
  5.824714e+00    3.611728e+03
  5.877832e+00    3.741896e+03
  5.930951e+00    3.918238e+03
  5.984069e+00    4.024916e+03
  6.037187e+00    3.991522e+03
  6.090305e+00    3.864409e+03
  6.143423e+00    3.754791e+03
  6.196541e+00    3.826869e+03
  6.249660e+00    3.999160e+03
  6.302778e+00    3.953061e+03
  6.355896e+00    3.682415e+03
  6.409014e+00    3.552408e+03
  6.462132e+00    3.481501e+03
  6.515250e+00    3.424454e+03
  6.568368e+00    3.437582e+03
  6.621487e+00    3.477708e+03
  6.674605e+00    3.529726e+03
  6.727723e+00    3.596844e+03
  6.780841e+00    3.567481e+03
  6.833959e+00    3.460517e+03
  6.887077e+00    3.350746e+03
  6.940196e+00    3.284007e+03
  6.993314e+00    3.312290e+03
  7.046432e+00    3.328046e+03
  7.099550e+00    3.241575e+03
  7.152668e+00    3.169296e+03
  7.205786e+00    3.116221e+03
  7.258905e+00    3.078161e+03
  7.312023e+00    3.111956e+03
  7.365141e+00    3.169392e+03
  7.418259e+00    3.229377e+03
  7.471377e+00    3.271455e+03
  7.524495e+00    3.329256e+03
  7.577614e+00    3.419388e+03
  7.630732e+00    3.486042e+03
  7.683850e+00    3.585453e+03
  7.736968e+00    3.698624e+03
  7.790086e+00    3.611030e+03
  7.843204e+00    3.394832e+03
  7.896322e+00    3.216367e+03
  7.949441e+00    3.138901e+03
  8.002559e+00    3.123826e+03
  8.055677e+00    3.123229e+03
  8.108795e+00    3.104134e+03
  8.161913e+00    3.073480e+03
  8.215031e+00    3.011812e+03
  8.268150e+00    2.950338e+03
  8.321268e+00    2.910049e+03
  8.374386e+00    2.887182e+03
  8.427504e+00    2.870293e+03
  8.480622e+00    2.844745e+03
  8.533740e+00    2.795076e+03
  8.586859e+00    2.827073e+03
  8.639977e+00    2.823181e+03
  8.693095e+00    2.817270e+03
  8.746213e+00    2.817940e+03
  8.799331e+00    2.809062e+03
  8.852449e+00    2.801674e+03
  8.905568e+00    2.814206e+03
  8.958686e+00    2.817533e+03
  9.011804e+00    2.813990e+03
  9.064922e+00    2.753568e+03
  9.118040e+00    2.699262e+03
  9.171158e+00    2.680637e+03
  9.224276e+00    2.663276e+03
  9.277395e+00    2.626930e+03
  9.330513e+00    2.604176e+03
  9.383631e+00    2.587045e+03
  9.436749e+00    2.573044e+03
  9.489867e+00    2.575526e+03
  9.542985e+00    2.569816e+03
  9.596104e+00    2.556909e+03
  9.649222e+00    2.559509e+03
  9.702340e+00    2.559188e+03
  9.755458e+00    2.551522e+03
  9.808576e+00    2.547175e+03
  9.861694e+00    2.550124e+03
  9.914813e+00    2.548547e+03
  9.967931e+00    2.529335e+03
  1.002105e+01    2.489645e+03
  1.007417e+01    2.450287e+03
  1.012729e+01    2.428375e+03
  1.018040e+01    2.427099e+03
  1.023352e+01    2.406788e+03
  1.028664e+01    2.375141e+03
  1.033976e+01    2.355915e+03
  1.039288e+01    2.369403e+03
  1.044599e+01    2.358665e+03
  1.049911e+01    2.354125e+03
  1.055223e+01    2.339093e+03
  1.060535e+01    2.340430e+03
  1.065847e+01    2.330198e+03
  1.071158e+01    2.325126e+03
  1.076470e+01    2.316770e+03
  1.081782e+01    2.314822e+03
  1.087094e+01    2.302978e+03
  1.092406e+01    2.309190e+03
  1.097718e+01    2.312310e+03
  1.103029e+01    2.314294e+03
  1.108341e+01    2.309709e+03
  1.113653e+01    2.297214e+03
  1.118965e+01    2.281080e+03
  1.124277e+01    2.266794e+03
  1.129588e+01    2.261378e+03
  1.134900e+01    2.248756e+03
  1.140212e+01    2.250528e+03
  1.145524e+01    2.245557e+03
  1.150836e+01    2.252146e+03
  1.156148e+01    2.251447e+03
  1.161459e+01    2.257272e+03
  1.166771e+01    2.247558e+03
  1.172083e+01    2.255379e+03
  1.177395e+01    2.236480e+03
  1.182707e+01    2.226283e+03
  1.188018e+01    2.225703e+03
  1.193330e+01    2.209918e+03
  1.198642e+01    2.189279e+03
  1.203954e+01    2.169553e+03
  1.209266e+01    2.162925e+03
  1.214578e+01    2.152573e+03
  1.219889e+01    2.154594e+03
  1.225201e+01    2.154804e+03
  1.230513e+01    2.148640e+03
  1.235825e+01    2.152555e+03
  1.241137e+01    2.138834e+03
  1.246448e+01    2.136066e+03
  1.251760e+01    2.130838e+03
  1.257072e+01    2.123869e+03
  1.262384e+01    2.128892e+03
  1.267696e+01    2.115355e+03
  1.273008e+01    2.101393e+03
  1.278319e+01    2.092345e+03
  1.283631e+01    2.083037e+03
  1.288943e+01    2.078675e+03
  1.294255e+01    2.065523e+03
  1.299567e+01    2.061773e+03
  1.304878e+01    2.055108e+03
  1.310190e+01    2.054206e+03
  1.315502e+01    2.049361e+03
  1.320814e+01    2.056662e+03
  1.326126e+01    2.015536e+03
  1.331437e+01    1.992452e+03
  1.336749e+01    1.983359e+03
  1.342061e+01    1.973484e+03
  1.347373e+01    2.000343e+03
  1.352685e+01    2.003212e+03
  1.357997e+01    1.991241e+03
  1.363308e+01    1.978543e+03
  1.368620e+01    1.967717e+03
  1.373932e+01    1.959585e+03
  1.379244e+01    1.953002e+03
  1.384556e+01    1.947535e+03
  1.389867e+01    1.941351e+03
  1.395179e+01    1.931317e+03
  1.400491e+01    1.928589e+03
  1.405803e+01    1.923968e+03
  1.411115e+01    1.916575e+03
  1.416427e+01    1.907533e+03
  1.421738e+01    1.904563e+03
  1.427050e+01    1.896605e+03
  1.432362e+01    1.895354e+03
  1.437674e+01    1.891137e+03
  1.442986e+01    1.880484e+03
  1.448297e+01    1.874344e+03
  1.453609e+01    1.865674e+03
  1.458921e+01    1.857033e+03
  1.464233e+01    1.852368e+03
  1.469545e+01    1.845598e+03
  1.474857e+01    1.825895e+03
  1.480168e+01    1.837397e+03
  1.485480e+01    1.835463e+03
  1.490792e+01    1.829403e+03
  1.496104e+01    1.821745e+03
  1.501416e+01    1.819703e+03
  1.506727e+01    1.814381e+03
  1.512039e+01    1.811403e+03
  1.517351e+01    1.825039e+03
  1.522663e+01    1.838398e+03
  1.527975e+01    1.835296e+03
  1.533286e+01    1.818898e+03
  1.538598e+01    1.809423e+03
  1.543910e+01    1.802324e+03
  1.549222e+01    1.799019e+03
  1.554534e+01    1.799268e+03
  1.559846e+01    1.796841e+03
  1.565157e+01    1.789324e+03
  1.570469e+01    1.782565e+03
  1.575781e+01    1.780515e+03
  1.581093e+01    1.777680e+03
  1.586405e+01    1.773959e+03
  1.591716e+01    1.769294e+03
  1.597028e+01    1.763594e+03
  1.602340e+01    1.747854e+03
  1.607652e+01    1.736797e+03
  1.612964e+01    1.714821e+03
  1.618276e+01    1.700935e+03
  1.623587e+01    1.703156e+03
  1.628899e+01    1.720548e+03
  1.634211e+01    1.717847e+03
  1.639523e+01    1.711505e+03
  1.644835e+01    1.713543e+03
  1.650146e+01    1.707210e+03
  1.655458e+01    1.705817e+03
  1.660770e+01    1.701838e+03
  1.666082e+01    1.697032e+03
  1.671394e+01    1.697240e+03
  1.676706e+01    1.692385e+03
  1.682017e+01    1.706919e+03
  1.687329e+01    1.693580e+03
  1.692641e+01    1.688746e+03
  1.697953e+01    1.683980e+03
  1.703265e+01    1.680613e+03
  1.708576e+01    1.677919e+03
  1.713888e+01    1.670609e+03
  1.719200e+01    1.670480e+03
  1.724512e+01    1.662220e+03
  1.729824e+01    1.662357e+03
  1.735136e+01    1.656107e+03
  1.740447e+01    1.633294e+03
  1.745759e+01    1.641575e+03
  1.751071e+01    1.642097e+03
  1.756383e+01    1.652439e+03
  1.761695e+01    1.637574e+03
  1.767006e+01    1.633771e+03
  1.772318e+01    1.624795e+03
  1.777630e+01    1.624128e+03
  1.782942e+01    1.616066e+03
  1.788254e+01    1.612214e+03
  1.793565e+01    1.609691e+03
  1.798877e+01    1.606373e+03
  1.804189e+01    1.601246e+03
  1.809501e+01    1.595193e+03
  1.814813e+01    1.593142e+03
  1.820125e+01    1.587401e+03
  1.825436e+01    1.593246e+03
  1.830748e+01    1.585837e+03
  1.836060e+01    1.581495e+03
  1.841372e+01    1.578454e+03
  1.846684e+01    1.573423e+03
  1.851995e+01    1.554011e+03
  1.857307e+01    1.540019e+03
  1.862619e+01    1.530220e+03
  1.867931e+01    1.526728e+03
  1.873243e+01    1.545074e+03
  1.878555e+01    1.547766e+03
  1.883866e+01    1.546720e+03
  1.889178e+01    1.545591e+03
  1.894490e+01    1.557581e+03
  1.899802e+01    1.546556e+03
  1.905114e+01    1.542569e+03
  1.910425e+01    1.537903e+03
  1.915737e+01    1.534339e+03
  1.921049e+01    1.528537e+03
  1.926361e+01    1.525676e+03
  1.931673e+01    1.522792e+03
  1.936985e+01    1.520988e+03
  1.942296e+01    1.518014e+03
  1.947608e+01    1.518273e+03
  1.952920e+01    1.514260e+03
  1.958232e+01    1.513316e+03
  1.963544e+01    1.518677e+03
  1.968855e+01    1.505114e+03
  1.974167e+01    1.492692e+03
  1.979479e+01    1.500817e+03
  1.984791e+01    1.497451e+03
  1.990103e+01    1.496485e+03
  1.995414e+01    1.492442e+03
  2.000726e+01    1.490552e+03
  2.006038e+01    1.487179e+03
  2.011350e+01    1.483633e+03
  2.016662e+01    1.476710e+03
  2.021974e+01    1.480863e+03
  2.027285e+01    1.486177e+03
  2.032597e+01    1.470604e+03
  2.037909e+01    1.465959e+03
  2.043221e+01    1.462519e+03
  2.048533e+01    1.460034e+03
  2.053844e+01    1.460581e+03
  2.059156e+01    1.453491e+03
  2.064468e+01    1.450486e+03
  2.069780e+01    1.431351e+03
  2.075092e+01    1.407131e+03
  2.080404e+01    1.393919e+03
  2.085715e+01    1.410624e+03
  2.091027e+01    1.439769e+03
  2.096339e+01    1.445869e+03
  2.101651e+01    1.450975e+03
  2.106963e+01    1.454150e+03
  2.112274e+01    1.456866e+03
  2.117586e+01    1.457933e+03
  2.122898e+01    1.461066e+03
  2.128210e+01    1.459053e+03
  2.133522e+01    1.458782e+03
  2.138834e+01    1.457622e+03
  2.144145e+01    1.457053e+03
  2.149457e+01    1.457266e+03
  2.154769e+01    1.457150e+03
  2.160081e+01    1.455612e+03
  2.165393e+01    1.457631e+03
  2.170704e+01    1.456400e+03
  2.176016e+01    1.446139e+03
  2.181328e+01    1.454977e+03
  2.186640e+01    1.456925e+03
  2.191952e+01    1.454453e+03
  2.197263e+01    1.453083e+03
  2.202575e+01    1.448635e+03
  2.207887e+01    1.450141e+03
  2.213199e+01    1.449371e+03
  2.218511e+01    1.449340e+03
  2.223823e+01    1.447794e+03
  2.229134e+01    1.445436e+03
  2.234446e+01    1.444110e+03
  2.239758e+01    1.442767e+03
  2.245070e+01    1.442176e+03
  2.250382e+01    1.444137e+03
  2.255693e+01    1.438632e+03
  2.261005e+01    1.420356e+03
  2.266317e+01    1.408574e+03
  2.271629e+01    1.400250e+03
  2.276941e+01    1.390871e+03
  2.282253e+01    1.383178e+03
  2.287564e+01    1.380640e+03
  2.292876e+01    1.374865e+03
  2.298188e+01    1.372207e+03
  2.303500e+01    1.370510e+03
  2.308812e+01    1.366024e+03
  2.314123e+01    1.365834e+03
  2.319435e+01    1.360846e+03
  2.324747e+01    1.351956e+03
  2.330059e+01    1.350404e+03
  2.335371e+01    1.347823e+03
  2.340683e+01    1.343750e+03
  2.345994e+01    1.339142e+03
  2.351306e+01    1.337222e+03
  2.356618e+01    1.333717e+03
  2.361930e+01    1.327409e+03
  2.367242e+01    1.322821e+03
  2.372553e+01    1.316386e+03
  2.377865e+01    1.310588e+03
  2.383177e+01    1.306168e+03
  2.388489e+01    1.300159e+03
  2.393801e+01    1.297743e+03
  2.399113e+01    1.295839e+03
  2.404424e+01    1.294303e+03
  2.409736e+01    1.292288e+03
  2.415048e+01    1.289092e+03
  2.420360e+01    1.286359e+03
  2.425672e+01    1.281598e+03
  2.430983e+01    1.279531e+03
  2.436295e+01    1.278203e+03
  2.441607e+01    1.276493e+03
  2.446919e+01    1.271524e+03
  2.452231e+01    1.272782e+03
  2.457542e+01    1.270201e+03
  2.462854e+01    1.266963e+03
  2.468166e+01    1.267183e+03
  2.473478e+01    1.261723e+03
  2.478790e+01    1.256159e+03
  2.484102e+01    1.250724e+03
  2.489413e+01    1.248631e+03
  2.494725e+01    1.241169e+03
  2.500037e+01    1.237560e+03
  2.505349e+01    1.232133e+03
  2.510661e+01    1.229111e+03
  2.515972e+01    1.228459e+03
  2.521284e+01    1.223907e+03
  2.526596e+01    1.223558e+03
  2.531908e+01    1.220016e+03
  2.537220e+01    1.216461e+03
  2.542532e+01    1.212377e+03
  2.547843e+01    1.215072e+03
  2.553155e+01    1.207530e+03
  2.558467e+01    1.203830e+03
  2.563779e+01    1.195016e+03
  2.569091e+01    1.189249e+03
  2.574402e+01    1.179613e+03
  2.579714e+01    1.174888e+03
  2.585026e+01    1.166054e+03
  2.590338e+01    1.157062e+03
  2.595650e+01    1.157908e+03
  2.600962e+01    1.155032e+03
  2.606273e+01    1.156974e+03
  2.611585e+01    1.154817e+03
  2.616897e+01    1.152963e+03
  2.622209e+01    1.155141e+03
  2.627521e+01    1.151229e+03
  2.632832e+01    1.143793e+03
  2.638144e+01    1.141502e+03
  2.643456e+01    1.130365e+03
  2.648768e+01    1.115401e+03
  2.654080e+01    1.108142e+03
