# == pyFAI calibration ==
# Distance Sample to Detector: 0.2946421923531691 m
# PONI: 2.875e-01, 2.439e-01 m
# Rotations: -0.010990 -0.009181 0.000003 rad
# 
# == Fit2d calibration ==
# Distance Sample-beamCenter: 294.672 mm
# Center: x=1436.809, y=1655.851 pix
# Tilt: 0.820 deg  TiltPlanRot: -39.874 deg
# 
# Detector Pilatus 2M	 PixelSize= 1.720e-04, 1.720e-04 m
#    Detector has a mask: True 
#    Detector has a dark current: False 
#    detector has a flat field: False 
# 
# Wavelength: 2.0732883349524408e-11 m
# Mask applied: from detector
# Dark current applied: False
# Flat field applied: False
# Polarization factor: None
# Normalization factor: 1.0
# --> /gpfs/current/raw/FMue_3/FMue_3_20231024_175355_00221.dat
#        q_A^-1             I 
  3.483473e-02             nan
  8.795289e-02             nan
  1.410711e-01             nan
  1.941892e-01             nan
  2.473074e-01             nan
  3.004255e-01             nan
  3.535437e-01             nan
  4.066619e-01    1.108989e+04
  4.597800e-01    1.019186e+04
  5.128982e-01    8.709182e+03
  5.660163e-01    7.980220e+03
  6.191345e-01    7.719679e+03
  6.722527e-01    7.639170e+03
  7.253708e-01    7.716227e+03
  7.784890e-01    7.770491e+03
  8.316071e-01    7.929654e+03
  8.847253e-01    8.052131e+03
  9.378435e-01    8.233796e+03
  9.909616e-01    8.461414e+03
  1.044080e+00    8.771305e+03
  1.097198e+00    9.208826e+03
  1.150316e+00    9.808855e+03
  1.203434e+00    1.050064e+04
  1.256552e+00    1.137910e+04
  1.309671e+00    1.255679e+04
  1.362789e+00    1.363074e+04
  1.415907e+00    1.405444e+04
  1.469025e+00    1.417188e+04
  1.522143e+00    1.404438e+04
  1.575261e+00    1.346846e+04
  1.628380e+00    1.273911e+04
  1.681498e+00    1.182269e+04
  1.734616e+00    1.087985e+04
  1.787734e+00    1.006231e+04
  1.840852e+00    9.347701e+03
  1.893970e+00    8.762295e+03
  1.947089e+00    8.354859e+03
  2.000207e+00    8.046590e+03
  2.053325e+00    7.944734e+03
  2.106443e+00    8.424056e+03
  2.159561e+00    9.592535e+03
  2.212679e+00    9.855626e+03
  2.265797e+00    9.225027e+03
  2.318916e+00    8.438367e+03
  2.372034e+00    7.735781e+03
  2.425152e+00    7.948315e+03
  2.478270e+00    9.400734e+03
  2.531388e+00    1.303467e+04
  2.584506e+00    1.413030e+04
  2.637625e+00    1.056602e+04
  2.690743e+00    8.340958e+03
  2.743861e+00    7.538338e+03
  2.796979e+00    6.298372e+03
  2.850097e+00    5.435725e+03
  2.903215e+00    5.136748e+03
  2.956334e+00    5.066933e+03
  3.009452e+00    5.399155e+03
  3.062570e+00    6.926456e+03
  3.115688e+00    9.188964e+03
  3.168806e+00    8.875288e+03
  3.221924e+00    7.153791e+03
  3.275043e+00    5.646987e+03
  3.328161e+00    4.816561e+03
  3.381279e+00    4.597438e+03
  3.434397e+00    4.607037e+03
  3.487515e+00    4.689765e+03
  3.540633e+00    4.609679e+03
  3.593751e+00    4.532179e+03
  3.646870e+00    4.586185e+03
  3.699988e+00    4.763535e+03
  3.753106e+00    5.103818e+03
  3.806224e+00    5.348896e+03
  3.859342e+00    5.323952e+03
  3.912460e+00    5.554299e+03
  3.965579e+00    6.450518e+03
  4.018697e+00    7.493208e+03
  4.071815e+00    7.400800e+03
  4.124933e+00    6.703180e+03
  4.178051e+00    6.264684e+03
  4.231169e+00    6.113593e+03
  4.284288e+00    6.498721e+03
  4.337406e+00    8.237062e+03
  4.390524e+00    1.049170e+04
  4.443642e+00    1.188233e+04
  4.496760e+00    1.201679e+04
  4.549878e+00    8.379382e+03
  4.602997e+00    5.819311e+03
  4.656115e+00    5.202361e+03
  4.709233e+00    5.007337e+03
  4.762351e+00    4.956662e+03
  4.815469e+00    5.019399e+03
  4.868587e+00    5.159644e+03
  4.921705e+00    5.227185e+03
  4.974824e+00    5.296745e+03
  5.027942e+00    5.465543e+03
  5.081060e+00    5.678976e+03
  5.134178e+00    5.457949e+03
  5.187296e+00    4.992801e+03
  5.240414e+00    4.609267e+03
  5.293533e+00    4.415451e+03
  5.346651e+00    4.336296e+03
  5.399769e+00    4.253207e+03
  5.452887e+00    4.211953e+03
  5.506005e+00    4.090496e+03
  5.559123e+00    3.740735e+03
  5.612242e+00    3.567419e+03
  5.665360e+00    3.530643e+03
  5.718478e+00    3.523940e+03
  5.771596e+00    3.594551e+03
  5.824714e+00    3.677082e+03
  5.877832e+00    3.854790e+03
  5.930951e+00    4.149269e+03
  5.984069e+00    4.159322e+03
  6.037187e+00    3.911613e+03
  6.090305e+00    3.733620e+03
  6.143423e+00    3.715421e+03
  6.196541e+00    3.870400e+03
  6.249660e+00    3.976832e+03
  6.302778e+00    3.839502e+03
  6.355896e+00    3.582761e+03
  6.409014e+00    3.486607e+03
  6.462132e+00    3.424931e+03
  6.515250e+00    3.385202e+03
  6.568368e+00    3.415816e+03
  6.621487e+00    3.484526e+03
  6.674605e+00    3.619006e+03
  6.727723e+00    3.674935e+03
  6.780841e+00    3.489611e+03
  6.833959e+00    3.294058e+03
  6.887077e+00    3.209146e+03
  6.940196e+00    3.182348e+03
  6.993314e+00    3.205324e+03
  7.046432e+00    3.206157e+03
  7.099550e+00    3.137774e+03
  7.152668e+00    3.074376e+03
  7.205786e+00    3.034598e+03
  7.258905e+00    3.025976e+03
  7.312023e+00    3.093065e+03
  7.365141e+00    3.201651e+03
  7.418259e+00    3.241274e+03
  7.471377e+00    3.230366e+03
  7.524495e+00    3.307758e+03
  7.577614e+00    3.464852e+03
  7.630732e+00    3.480435e+03
  7.683850e+00    3.487833e+03
  7.736968e+00    3.556195e+03
  7.790086e+00    3.464008e+03
  7.843204e+00    3.297136e+03
  7.896322e+00    3.184304e+03
  7.949441e+00    3.154960e+03
  8.002559e+00    3.171354e+03
  8.055677e+00    3.124065e+03
  8.108795e+00    3.038246e+03
  8.161913e+00    2.985370e+03
  8.215031e+00    2.941361e+03
  8.268150e+00    2.899059e+03
  8.321268e+00    2.865017e+03
  8.374386e+00    2.840960e+03
  8.427504e+00    2.828293e+03
  8.480622e+00    2.819420e+03
  8.533740e+00    2.779567e+03
  8.586859e+00    2.812217e+03
  8.639977e+00    2.796254e+03
  8.693095e+00    2.785672e+03
  8.746213e+00    2.799459e+03
  8.799331e+00    2.785031e+03
  8.852449e+00    2.755686e+03
  8.905568e+00    2.758980e+03
  8.958686e+00    2.761258e+03
  9.011804e+00    2.756895e+03
  9.064922e+00    2.717033e+03
  9.118040e+00    2.693327e+03
  9.171158e+00    2.667189e+03
  9.224276e+00    2.621378e+03
  9.277395e+00    2.572245e+03
  9.330513e+00    2.540203e+03
  9.383631e+00    2.516729e+03
  9.436749e+00    2.505055e+03
  9.489867e+00    2.522688e+03
  9.542985e+00    2.533815e+03
  9.596104e+00    2.537612e+03
  9.649222e+00    2.545172e+03
  9.702340e+00    2.533542e+03
  9.755458e+00    2.516796e+03
  9.808576e+00    2.514049e+03
  9.861694e+00    2.506624e+03
  9.914813e+00    2.491458e+03
  9.967931e+00    2.469265e+03
  1.002105e+01    2.443892e+03
  1.007417e+01    2.430539e+03
  1.012729e+01    2.412556e+03
  1.018040e+01    2.391319e+03
  1.023352e+01    2.351475e+03
  1.028664e+01    2.317009e+03
  1.033976e+01    2.300635e+03
  1.039288e+01    2.320406e+03
  1.044599e+01    2.312312e+03
  1.049911e+01    2.315052e+03
  1.055223e+01    2.307095e+03
  1.060535e+01    2.308492e+03
  1.065847e+01    2.296979e+03
  1.071158e+01    2.286484e+03
  1.076470e+01    2.277954e+03
  1.081782e+01    2.271759e+03
  1.087094e+01    2.266656e+03
  1.092406e+01    2.278571e+03
  1.097718e+01    2.287321e+03
  1.103029e+01    2.285077e+03
  1.108341e+01    2.273022e+03
  1.113653e+01    2.251546e+03
  1.118965e+01    2.230536e+03
  1.124277e+01    2.217291e+03
  1.129588e+01    2.213780e+03
  1.134900e+01    2.209467e+03
  1.140212e+01    2.217182e+03
  1.145524e+01    2.221332e+03
  1.150836e+01    2.230571e+03
  1.156148e+01    2.227406e+03
  1.161459e+01    2.227967e+03
  1.166771e+01    2.206086e+03
  1.172083e+01    2.206388e+03
  1.177395e+01    2.189583e+03
  1.182707e+01    2.182948e+03
  1.188018e+01    2.185968e+03
  1.193330e+01    2.169145e+03
  1.198642e+01    2.146167e+03
  1.203954e+01    2.129036e+03
  1.209266e+01    2.125973e+03
  1.214578e+01    2.118759e+03
  1.219889e+01    2.127417e+03
  1.225201e+01    2.131368e+03
  1.230513e+01    2.123662e+03
  1.235825e+01    2.117969e+03
  1.241137e+01    2.101556e+03
  1.246448e+01    2.097746e+03
  1.251760e+01    2.092694e+03
  1.257072e+01    2.089831e+03
  1.262384e+01    2.097100e+03
  1.267696e+01    2.083589e+03
  1.273008e+01    2.066117e+03
  1.278319e+01    2.058162e+03
  1.283631e+01    2.047850e+03
  1.288943e+01    2.039571e+03
  1.294255e+01    2.029746e+03
  1.299567e+01    2.027153e+03
  1.304878e+01    2.022531e+03
  1.310190e+01    2.021100e+03
  1.315502e+01    2.016552e+03
  1.320814e+01    1.995027e+03
  1.326126e+01    1.969198e+03
  1.331437e+01    1.962411e+03
  1.336749e+01    1.954958e+03
  1.342061e+01    1.945368e+03
  1.347373e+01    1.962702e+03
  1.352685e+01    1.961096e+03
  1.357997e+01    1.947716e+03
  1.363308e+01    1.939668e+03
  1.368620e+01    1.933501e+03
  1.373932e+01    1.925591e+03
  1.379244e+01    1.921571e+03
  1.384556e+01    1.911684e+03
  1.389867e+01    1.902891e+03
  1.395179e+01    1.895136e+03
  1.400491e+01    1.891532e+03
  1.405803e+01    1.888474e+03
  1.411115e+01    1.881641e+03
  1.416427e+01    1.874740e+03
  1.421738e+01    1.869195e+03
  1.427050e+01    1.859320e+03
  1.432362e+01    1.860187e+03
  1.437674e+01    1.858028e+03
  1.442986e+01    1.848675e+03
  1.448297e+01    1.840809e+03
  1.453609e+01    1.834969e+03
  1.458921e+01    1.824064e+03
  1.464233e+01    1.819456e+03
  1.469545e+01    1.815035e+03
  1.474857e+01    1.795228e+03
  1.480168e+01    1.804323e+03
  1.485480e+01    1.800267e+03
  1.490792e+01    1.797753e+03
  1.496104e+01    1.790421e+03
  1.501416e+01    1.788491e+03
  1.506727e+01    1.784330e+03
  1.512039e+01    1.780827e+03
  1.517351e+01    1.794370e+03
  1.522663e+01    1.807117e+03
  1.527975e+01    1.803036e+03
  1.533286e+01    1.788599e+03
  1.538598e+01    1.779087e+03
  1.543910e+01    1.771208e+03
  1.549222e+01    1.766969e+03
  1.554534e+01    1.766693e+03
  1.559846e+01    1.762322e+03
  1.565157e+01    1.757394e+03
  1.570469e+01    1.752065e+03
  1.575781e+01    1.750559e+03
  1.581093e+01    1.746428e+03
  1.586405e+01    1.742847e+03
  1.591716e+01    1.735894e+03
  1.597028e+01    1.730702e+03
  1.602340e+01    1.716469e+03
  1.607652e+01    1.705253e+03
  1.612964e+01    1.681427e+03
  1.618276e+01    1.670198e+03
  1.623587e+01    1.670429e+03
  1.628899e+01    1.687702e+03
  1.634211e+01    1.684903e+03
  1.639523e+01    1.679726e+03
  1.644835e+01    1.683117e+03
  1.650146e+01    1.676254e+03
  1.655458e+01    1.675095e+03
  1.660770e+01    1.669488e+03
  1.666082e+01    1.665291e+03
  1.671394e+01    1.664580e+03
  1.676706e+01    1.659933e+03
  1.682017e+01    1.672085e+03
  1.687329e+01    1.661979e+03
  1.692641e+01    1.657202e+03
  1.697953e+01    1.651273e+03
  1.703265e+01    1.646276e+03
  1.708576e+01    1.645902e+03
  1.713888e+01    1.638212e+03
  1.719200e+01    1.636050e+03
  1.724512e+01    1.627278e+03
  1.729824e+01    1.629220e+03
  1.735136e+01    1.621843e+03
  1.740447e+01    1.600704e+03
  1.745759e+01    1.609378e+03
  1.751071e+01    1.608819e+03
  1.756383e+01    1.620452e+03
  1.761695e+01    1.605667e+03
  1.767006e+01    1.603202e+03
  1.772318e+01    1.594354e+03
  1.777630e+01    1.592911e+03
  1.782942e+01    1.585566e+03
  1.788254e+01    1.579080e+03
  1.793565e+01    1.577675e+03
  1.798877e+01    1.574953e+03
  1.804189e+01    1.568315e+03
  1.809501e+01    1.564573e+03
  1.814813e+01    1.560564e+03
  1.820125e+01    1.556410e+03
  1.825436e+01    1.560658e+03
  1.830748e+01    1.555627e+03
  1.836060e+01    1.550434e+03
  1.841372e+01    1.547786e+03
  1.846684e+01    1.543957e+03
  1.851995e+01    1.524450e+03
  1.857307e+01    1.510797e+03
  1.862619e+01    1.499773e+03
  1.867931e+01    1.497859e+03
  1.873243e+01    1.516626e+03
  1.878555e+01    1.518253e+03
  1.883866e+01    1.518500e+03
  1.889178e+01    1.517311e+03
  1.894490e+01    1.528297e+03
  1.899802e+01    1.518654e+03
  1.905114e+01    1.514258e+03
  1.910425e+01    1.509268e+03
  1.915737e+01    1.504868e+03
  1.921049e+01    1.501718e+03
  1.926361e+01    1.498260e+03
  1.931673e+01    1.493742e+03
  1.936985e+01    1.491893e+03
  1.942296e+01    1.489136e+03
  1.947608e+01    1.488791e+03
  1.952920e+01    1.485056e+03
  1.958232e+01    1.485785e+03
  1.963544e+01    1.490908e+03
  1.968855e+01    1.476717e+03
  1.974167e+01    1.465073e+03
  1.979479e+01    1.470558e+03
  1.984791e+01    1.467354e+03
  1.990103e+01    1.464985e+03
  1.995414e+01    1.464153e+03
  2.000726e+01    1.460786e+03
  2.006038e+01    1.458090e+03
  2.011350e+01    1.452705e+03
  2.016662e+01    1.447824e+03
  2.021974e+01    1.450386e+03
  2.027285e+01    1.457551e+03
  2.032597e+01    1.440525e+03
  2.037909e+01    1.436330e+03
  2.043221e+01    1.431986e+03
  2.048533e+01    1.430306e+03
  2.053844e+01    1.429622e+03
  2.059156e+01    1.424835e+03
  2.064468e+01    1.421709e+03
  2.069780e+01    1.403136e+03
  2.075092e+01    1.379858e+03
  2.080404e+01    1.365432e+03
  2.085715e+01    1.384223e+03
  2.091027e+01    1.408993e+03
  2.096339e+01    1.416008e+03
  2.101651e+01    1.422294e+03
  2.106963e+01    1.424842e+03
  2.112274e+01    1.428931e+03
  2.117586e+01    1.430766e+03
  2.122898e+01    1.432283e+03
  2.128210e+01    1.429361e+03
  2.133522e+01    1.430365e+03
  2.138834e+01    1.429197e+03
  2.144145e+01    1.427932e+03
  2.149457e+01    1.429644e+03
  2.154769e+01    1.428285e+03
  2.160081e+01    1.427839e+03
  2.165393e+01    1.428176e+03
  2.170704e+01    1.428674e+03
  2.176016e+01    1.418297e+03
  2.181328e+01    1.425396e+03
  2.186640e+01    1.427646e+03
  2.191952e+01    1.426903e+03
  2.197263e+01    1.424062e+03
  2.202575e+01    1.421620e+03
  2.207887e+01    1.420164e+03
  2.213199e+01    1.420728e+03
  2.218511e+01    1.418949e+03
  2.223823e+01    1.418844e+03
  2.229134e+01    1.415496e+03
  2.234446e+01    1.416495e+03
  2.239758e+01    1.416177e+03
  2.245070e+01    1.413129e+03
  2.250382e+01    1.414576e+03
  2.255693e+01    1.410358e+03
  2.261005e+01    1.392819e+03
  2.266317e+01    1.381638e+03
  2.271629e+01    1.373974e+03
  2.276941e+01    1.363046e+03
  2.282253e+01    1.357497e+03
  2.287564e+01    1.352019e+03
  2.292876e+01    1.347562e+03
  2.298188e+01    1.343979e+03
  2.303500e+01    1.343264e+03
  2.308812e+01    1.338317e+03
  2.314123e+01    1.338075e+03
  2.319435e+01    1.333504e+03
  2.324747e+01    1.326692e+03
  2.330059e+01    1.324188e+03
  2.335371e+01    1.321139e+03
  2.340683e+01    1.315396e+03
  2.345994e+01    1.312819e+03
  2.351306e+01    1.311273e+03
  2.356618e+01    1.304827e+03
  2.361930e+01    1.298558e+03
  2.367242e+01    1.295068e+03
  2.372553e+01    1.288599e+03
  2.377865e+01    1.285085e+03
  2.383177e+01    1.279203e+03
  2.388489e+01    1.275794e+03
  2.393801e+01    1.271069e+03
  2.399113e+01    1.271475e+03
  2.404424e+01    1.270092e+03
  2.409736e+01    1.269381e+03
  2.415048e+01    1.264431e+03
  2.420360e+01    1.263048e+03
  2.425672e+01    1.259225e+03
  2.430983e+01    1.252781e+03
  2.436295e+01    1.253741e+03
  2.441607e+01    1.250889e+03
  2.446919e+01    1.251427e+03
  2.452231e+01    1.248609e+03
  2.457542e+01    1.245254e+03
  2.462854e+01    1.242009e+03
  2.468166e+01    1.242177e+03
  2.473478e+01    1.237470e+03
  2.478790e+01    1.228115e+03
  2.484102e+01    1.236757e+03
  2.489413e+01    1.233313e+03
  2.494725e+01    1.231624e+03
  2.500037e+01    1.254541e+03
  2.505349e+01    1.213914e+03
  2.510661e+01    1.204509e+03
  2.515972e+01    1.201594e+03
  2.521284e+01    1.200921e+03
  2.526596e+01    1.200855e+03
  2.531908e+01    1.196318e+03
  2.537220e+01    1.194875e+03
  2.542532e+01    1.190187e+03
  2.547843e+01    1.190673e+03
  2.553155e+01    1.185895e+03
  2.558467e+01    1.178985e+03
  2.563779e+01    1.170153e+03
  2.569091e+01    1.164992e+03
  2.574402e+01    1.158058e+03
  2.579714e+01    1.150603e+03
  2.585026e+01    1.144366e+03
  2.590338e+01    1.138131e+03
  2.595650e+01    1.134095e+03
  2.600962e+01    1.134243e+03
  2.606273e+01    1.135176e+03
  2.611585e+01    1.130951e+03
  2.616897e+01    1.131259e+03
  2.622209e+01    1.129971e+03
  2.627521e+01    1.124355e+03
  2.632832e+01    1.122248e+03
  2.638144e+01    1.116299e+03
  2.643456e+01    1.114618e+03
  2.648768e+01    1.092335e+03
  2.654080e+01    1.081908e+03
