# == pyFAI calibration ==
# Distance Sample to Detector: 0.2946421923531691 m
# PONI: 2.875e-01, 2.439e-01 m
# Rotations: -0.010990 -0.009181 0.000003 rad
# 
# == Fit2d calibration ==
# Distance Sample-beamCenter: 294.672 mm
# Center: x=1436.809, y=1655.851 pix
# Tilt: 0.820 deg  TiltPlanRot: -39.874 deg
# 
# Detector Pilatus 2M	 PixelSize= 1.720e-04, 1.720e-04 m
#    Detector has a mask: True 
#    Detector has a dark current: False 
#    detector has a flat field: False 
# 
# Wavelength: 2.0732883349524408e-11 m
# Mask applied: from detector
# Dark current applied: False
# Flat field applied: False
# Polarization factor: None
# Normalization factor: 1.0
# --> /gpfs/current/raw/FMue_3/FMue_3_20231024_175355_00065.dat
#        q_A^-1             I 
  3.483473e-02             nan
  8.795289e-02             nan
  1.410711e-01             nan
  1.941892e-01             nan
  2.473074e-01             nan
  3.004255e-01             nan
  3.535437e-01             nan
  4.066619e-01    1.254242e+04
  4.597800e-01    1.162379e+04
  5.128982e-01    1.010434e+04
  5.660163e-01    9.331278e+03
  6.191345e-01    9.073235e+03
  6.722527e-01    9.021791e+03
  7.253708e-01    9.192507e+03
  7.784890e-01    9.551592e+03
  8.316071e-01    1.044118e+04
  8.847253e-01    1.205422e+04
  9.378435e-01    1.378617e+04
  9.909616e-01    1.350780e+04
  1.044080e+00    1.167156e+04
  1.097198e+00    1.054460e+04
  1.150316e+00    1.064139e+04
  1.203434e+00    1.126496e+04
  1.256552e+00    1.219599e+04
  1.309671e+00    1.285372e+04
  1.362789e+00    1.376642e+04
  1.415907e+00    1.445384e+04
  1.469025e+00    1.469509e+04
  1.522143e+00    1.463437e+04
  1.575261e+00    1.407358e+04
  1.628380e+00    1.337612e+04
  1.681498e+00    1.249764e+04
  1.734616e+00    1.161958e+04
  1.787734e+00    1.091461e+04
  1.840852e+00    1.037407e+04
  1.893970e+00    9.840797e+03
  1.947089e+00    9.529935e+03
  2.000207e+00    8.965451e+03
  2.053325e+00    8.213322e+03
  2.106443e+00    7.990510e+03
  2.159561e+00    8.146328e+03
  2.212679e+00    8.364118e+03
  2.265797e+00    8.659515e+03
  2.318916e+00    8.763542e+03
  2.372034e+00    8.996981e+03
  2.425152e+00    9.037943e+03
  2.478270e+00    8.965629e+03
  2.531388e+00    9.631037e+03
  2.584506e+00    1.008988e+04
  2.637625e+00    9.756769e+03
  2.690743e+00    9.105074e+03
  2.743861e+00    8.504510e+03
  2.796979e+00    7.365443e+03
  2.850097e+00    6.406149e+03
  2.903215e+00    6.047242e+03
  2.956334e+00    5.914287e+03
  3.009452e+00    5.967464e+03
  3.062570e+00    6.585708e+03
  3.115688e+00    8.444059e+03
  3.168806e+00    9.126373e+03
  3.221924e+00    7.893561e+03
  3.275043e+00    6.529407e+03
  3.328161e+00    5.929679e+03
  3.381279e+00    6.041274e+03
  3.434397e+00    5.620807e+03
  3.487515e+00    5.370955e+03
  3.540633e+00    5.297152e+03
  3.593751e+00    5.142834e+03
  3.646870e+00    5.128889e+03
  3.699988e+00    5.177231e+03
  3.753106e+00    5.297117e+03
  3.806224e+00    5.341355e+03
  3.859342e+00    5.333635e+03
  3.912460e+00    5.395006e+03
  3.965579e+00    5.568676e+03
  4.018697e+00    6.057183e+03
  4.071815e+00    7.026898e+03
  4.124933e+00    7.797395e+03
  4.178051e+00    7.463901e+03
  4.231169e+00    6.887909e+03
  4.284288e+00    6.725296e+03
  4.337406e+00    7.026199e+03
  4.390524e+00    7.667180e+03
  4.443642e+00    9.930100e+03
  4.496760e+00    1.209692e+04
  4.549878e+00    9.238651e+03
  4.602997e+00    6.229553e+03
  4.656115e+00    5.541022e+03
  4.709233e+00    5.513479e+03
  4.762351e+00    5.751290e+03
  4.815469e+00    5.683863e+03
  4.868587e+00    5.471879e+03
  4.921705e+00    5.409365e+03
  4.974824e+00    5.402295e+03
  5.027942e+00    5.324219e+03
  5.081060e+00    5.279917e+03
  5.134178e+00    5.168329e+03
  5.187296e+00    5.032440e+03
  5.240414e+00    4.847412e+03
  5.293533e+00    4.708703e+03
  5.346651e+00    4.552548e+03
  5.399769e+00    4.414394e+03
  5.452887e+00    4.417238e+03
  5.506005e+00    4.459447e+03
  5.559123e+00    4.120094e+03
  5.612242e+00    3.834510e+03
  5.665360e+00    3.736359e+03
  5.718478e+00    3.615624e+03
  5.771596e+00    3.527138e+03
  5.824714e+00    3.506032e+03
  5.877832e+00    3.538615e+03
  5.930951e+00    3.628868e+03
  5.984069e+00    3.738291e+03
  6.037187e+00    3.814345e+03
  6.090305e+00    3.809974e+03
  6.143423e+00    3.757132e+03
  6.196541e+00    3.851392e+03
  6.249660e+00    4.112761e+03
  6.302778e+00    4.209227e+03
  6.355896e+00    3.985729e+03
  6.409014e+00    3.818004e+03
  6.462132e+00    3.715533e+03
  6.515250e+00    3.600614e+03
  6.568368e+00    3.548497e+03
  6.621487e+00    3.501613e+03
  6.674605e+00    3.461730e+03
  6.727723e+00    3.473709e+03
  6.780841e+00    3.463091e+03
  6.833959e+00    3.411773e+03
  6.887077e+00    3.366840e+03
  6.940196e+00    3.323360e+03
  6.993314e+00    3.369485e+03
  7.046432e+00    3.443977e+03
  7.099550e+00    3.422417e+03
  7.152668e+00    3.359602e+03
  7.205786e+00    3.285636e+03
  7.258905e+00    3.202569e+03
  7.312023e+00    3.160284e+03
  7.365141e+00    3.152641e+03
  7.418259e+00    3.164200e+03
  7.471377e+00    3.187529e+03
  7.524495e+00    3.218960e+03
  7.577614e+00    3.243415e+03
  7.630732e+00    3.261767e+03
  7.683850e+00    3.391486e+03
  7.736968e+00    3.611882e+03
  7.790086e+00    3.628121e+03
  7.843204e+00    3.412406e+03
  7.896322e+00    3.191563e+03
  7.949441e+00    3.061225e+03
  8.002559e+00    3.014831e+03
  8.055677e+00    3.016416e+03
  8.108795e+00    3.042239e+03
  8.161913e+00    3.083257e+03
  8.215031e+00    3.083800e+03
  8.268150e+00    3.040784e+03
  8.321268e+00    2.995968e+03
  8.374386e+00    2.973469e+03
  8.427504e+00    2.955360e+03
  8.480622e+00    2.937278e+03
  8.533740e+00    2.883818e+03
  8.586859e+00    2.909880e+03
  8.639977e+00    2.896763e+03
  8.693095e+00    2.875850e+03
  8.746213e+00    2.862265e+03
  8.799331e+00    2.833671e+03
  8.852449e+00    2.821018e+03
  8.905568e+00    2.838386e+03
  8.958686e+00    2.856338e+03
  9.011804e+00    2.863112e+03
  9.064922e+00    2.791065e+03
  9.118040e+00    2.703391e+03
  9.171158e+00    2.664574e+03
  9.224276e+00    2.647221e+03
  9.277395e+00    2.627095e+03
  9.330513e+00    2.619600e+03
  9.383631e+00    2.617582e+03
  9.436749e+00    2.615665e+03
  9.489867e+00    2.624817e+03
  9.542985e+00    2.614360e+03
  9.596104e+00    2.581333e+03
  9.649222e+00    2.559799e+03
  9.702340e+00    2.549299e+03
  9.755458e+00    2.541372e+03
  9.808576e+00    2.533572e+03
  9.861694e+00    2.539332e+03
  9.914813e+00    2.548857e+03
  9.967931e+00    2.545845e+03
  1.002105e+01    2.503396e+03
  1.007417e+01    2.450985e+03
  1.012729e+01    2.420352e+03
  1.018040e+01    2.423324e+03
  1.023352e+01    2.416659e+03
  1.028664e+01    2.400399e+03
  1.033976e+01    2.393231e+03
  1.039288e+01    2.417368e+03
  1.044599e+01    2.402359e+03
  1.049911e+01    2.398968e+03
  1.055223e+01    2.378862e+03
  1.060535e+01    2.375013e+03
  1.065847e+01    2.363926e+03
  1.071158e+01    2.361883e+03
  1.076470e+01    2.355407e+03
  1.081782e+01    2.354166e+03
  1.087094e+01    2.338980e+03
  1.092406e+01    2.341046e+03
  1.097718e+01    2.335447e+03
  1.103029e+01    2.329546e+03
  1.108341e+01    2.318869e+03
  1.113653e+01    2.303131e+03
  1.118965e+01    2.289917e+03
  1.124277e+01    2.280490e+03
  1.129588e+01    2.276871e+03
  1.134900e+01    2.259445e+03
  1.140212e+01    2.254194e+03
  1.145524e+01    2.242998e+03
  1.150836e+01    2.243317e+03
  1.156148e+01    2.231715e+03
  1.161459e+01    2.235253e+03
  1.166771e+01    2.230613e+03
  1.172083e+01    2.249524e+03
  1.177395e+01    2.239999e+03
  1.182707e+01    2.239100e+03
  1.188018e+01    2.245379e+03
  1.193330e+01    2.232075e+03
  1.198642e+01    2.217038e+03
  1.203954e+01    2.196590e+03
  1.209266e+01    2.189149e+03
  1.214578e+01    2.179464e+03
  1.219889e+01    2.183019e+03
  1.225201e+01    2.180690e+03
  1.230513e+01    2.176645e+03
  1.235825e+01    2.180681e+03
  1.241137e+01    2.173206e+03
  1.246448e+01    2.173791e+03
  1.251760e+01    2.172427e+03
  1.257072e+01    2.169422e+03
  1.262384e+01    2.171618e+03
  1.267696e+01    2.154545e+03
  1.273008e+01    2.138869e+03
  1.278319e+01    2.127731e+03
  1.283631e+01    2.117635e+03
  1.288943e+01    2.110188e+03
  1.294255e+01    2.099006e+03
  1.299567e+01    2.092467e+03
  1.304878e+01    2.083445e+03
  1.310190e+01    2.078577e+03
  1.315502e+01    2.071189e+03
  1.320814e+01    2.043196e+03
  1.326126e+01    2.017031e+03
  1.331437e+01    2.003087e+03
  1.336749e+01    1.992614e+03
  1.342061e+01    1.979968e+03
  1.347373e+01    2.005053e+03
  1.352685e+01    2.009833e+03
  1.357997e+01    2.000484e+03
  1.363308e+01    1.989395e+03
  1.368620e+01    1.980172e+03
  1.373932e+01    1.970361e+03
  1.379244e+01    1.963580e+03
  1.384556e+01    1.959228e+03
  1.389867e+01    1.950327e+03
  1.395179e+01    1.943675e+03
  1.400491e+01    1.943116e+03
  1.405803e+01    1.938972e+03
  1.411115e+01    1.932025e+03
  1.416427e+01    1.921135e+03
  1.421738e+01    1.919125e+03
  1.427050e+01    1.913196e+03
  1.432362e+01    1.915129e+03
  1.437674e+01    1.912729e+03
  1.442986e+01    1.899376e+03
  1.448297e+01    1.893526e+03
  1.453609e+01    1.886679e+03
  1.458921e+01    1.878485e+03
  1.464233e+01    1.873726e+03
  1.469545e+01    1.868953e+03
  1.474857e+01    1.850765e+03
  1.480168e+01    1.861232e+03
  1.485480e+01    1.858063e+03
  1.490792e+01    1.855057e+03
  1.496104e+01    1.848355e+03
  1.501416e+01    1.845150e+03
  1.506727e+01    1.840273e+03
  1.512039e+01    1.837352e+03
  1.517351e+01    1.848706e+03
  1.522663e+01    1.861860e+03
  1.527975e+01    1.856715e+03
  1.533286e+01    1.838979e+03
  1.538598e+01    1.829351e+03
  1.543910e+01    1.821442e+03
  1.549222e+01    1.818011e+03
  1.554534e+01    1.818242e+03
  1.559846e+01    1.816331e+03
  1.565157e+01    1.809695e+03
  1.570469e+01    1.802813e+03
  1.575781e+01    1.798448e+03
  1.581093e+01    1.794933e+03
  1.586405e+01    1.791731e+03
  1.591716e+01    1.786262e+03
  1.597028e+01    1.782128e+03
  1.602340e+01    1.768081e+03
  1.607652e+01    1.755164e+03
  1.612964e+01    1.732576e+03
  1.618276e+01    1.721594e+03
  1.623587e+01    1.724514e+03
  1.628899e+01    1.740512e+03
  1.634211e+01    1.739895e+03
  1.639523e+01    1.733197e+03
  1.644835e+01    1.734669e+03
  1.650146e+01    1.728551e+03
  1.655458e+01    1.725881e+03
  1.660770e+01    1.719560e+03
  1.666082e+01    1.715069e+03
  1.671394e+01    1.715884e+03
  1.676706e+01    1.710658e+03
  1.682017e+01    1.724532e+03
  1.687329e+01    1.712426e+03
  1.692641e+01    1.706550e+03
  1.697953e+01    1.702572e+03
  1.703265e+01    1.697249e+03
  1.708576e+01    1.694762e+03
  1.713888e+01    1.687633e+03
  1.719200e+01    1.687020e+03
  1.724512e+01    1.679424e+03
  1.729824e+01    1.679406e+03
  1.735136e+01    1.673078e+03
  1.740447e+01    1.650073e+03
  1.745759e+01    1.658420e+03
  1.751071e+01    1.660710e+03
  1.756383e+01    1.671622e+03
  1.761695e+01    1.653983e+03
  1.767006e+01    1.650743e+03
  1.772318e+01    1.640243e+03
  1.777630e+01    1.640646e+03
  1.782942e+01    1.630725e+03
  1.788254e+01    1.626796e+03
  1.793565e+01    1.624422e+03
  1.798877e+01    1.622207e+03
  1.804189e+01    1.616110e+03
  1.809501e+01    1.610907e+03
  1.814813e+01    1.610900e+03
  1.820125e+01    1.604066e+03
  1.825436e+01    1.610292e+03
  1.830748e+01    1.603825e+03
  1.836060e+01    1.598627e+03
  1.841372e+01    1.596495e+03
  1.846684e+01    1.591969e+03
  1.851995e+01    1.572302e+03
  1.857307e+01    1.557417e+03
  1.862619e+01    1.548456e+03
  1.867931e+01    1.544426e+03
  1.873243e+01    1.563073e+03
  1.878555e+01    1.566201e+03
  1.883866e+01    1.565923e+03
  1.889178e+01    1.563934e+03
  1.894490e+01    1.575530e+03
  1.899802e+01    1.564802e+03
  1.905114e+01    1.561252e+03
  1.910425e+01    1.555941e+03
  1.915737e+01    1.552566e+03
  1.921049e+01    1.548164e+03
  1.926361e+01    1.543635e+03
  1.931673e+01    1.541344e+03
  1.936985e+01    1.539836e+03
  1.942296e+01    1.536243e+03
  1.947608e+01    1.536506e+03
  1.952920e+01    1.533798e+03
  1.958232e+01    1.533246e+03
  1.963544e+01    1.537860e+03
  1.968855e+01    1.523628e+03
  1.974167e+01    1.513351e+03
  1.979479e+01    1.516780e+03
  1.984791e+01    1.514680e+03
  1.990103e+01    1.513226e+03
  1.995414e+01    1.511845e+03
  2.000726e+01    1.508495e+03
  2.006038e+01    1.505376e+03
  2.011350e+01    1.500573e+03
  2.016662e+01    1.495061e+03
  2.021974e+01    1.497228e+03
  2.027285e+01    1.503884e+03
  2.032597e+01    1.488063e+03
  2.037909e+01    1.484425e+03
  2.043221e+01    1.478899e+03
  2.048533e+01    1.477456e+03
  2.053844e+01    1.475606e+03
  2.059156e+01    1.470894e+03
  2.064468e+01    1.467544e+03
  2.069780e+01    1.448290e+03
  2.075092e+01    1.423780e+03
  2.080404e+01    1.409273e+03
  2.085715e+01    1.428736e+03
  2.091027e+01    1.455680e+03
  2.096339e+01    1.463534e+03
  2.101651e+01    1.468435e+03
  2.106963e+01    1.472645e+03
  2.112274e+01    1.475156e+03
  2.117586e+01    1.477522e+03
  2.122898e+01    1.478802e+03
  2.128210e+01    1.477516e+03
  2.133522e+01    1.477724e+03
  2.138834e+01    1.475552e+03
  2.144145e+01    1.475197e+03
  2.149457e+01    1.476417e+03
  2.154769e+01    1.476399e+03
  2.160081e+01    1.474574e+03
  2.165393e+01    1.474339e+03
  2.170704e+01    1.475959e+03
  2.176016e+01    1.464556e+03
  2.181328e+01    1.474748e+03
  2.186640e+01    1.475380e+03
  2.191952e+01    1.472386e+03
  2.197263e+01    1.469373e+03
  2.202575e+01    1.468822e+03
  2.207887e+01    1.467810e+03
  2.213199e+01    1.465975e+03
  2.218511e+01    1.465521e+03
  2.223823e+01    1.464751e+03
  2.229134e+01    1.462080e+03
  2.234446e+01    1.462048e+03
  2.239758e+01    1.461891e+03
  2.245070e+01    1.459000e+03
  2.250382e+01    1.460166e+03
  2.255693e+01    1.457178e+03
  2.261005e+01    1.438233e+03
  2.266317e+01    1.427373e+03
  2.271629e+01    1.416224e+03
  2.276941e+01    1.407594e+03
  2.282253e+01    1.401134e+03
  2.287564e+01    1.396059e+03
  2.292876e+01    1.392424e+03
  2.298188e+01    1.389629e+03
  2.303500e+01    1.385984e+03
  2.308812e+01    1.384734e+03
  2.314123e+01    1.381844e+03
  2.319435e+01    1.377313e+03
  2.324747e+01    1.371110e+03
  2.330059e+01    1.366436e+03
  2.335371e+01    1.365165e+03
  2.340683e+01    1.360576e+03
  2.345994e+01    1.357051e+03
  2.351306e+01    1.353606e+03
  2.356618e+01    1.349778e+03
  2.361930e+01    1.343672e+03
  2.367242e+01    1.340053e+03
  2.372553e+01    1.334321e+03
  2.377865e+01    1.327598e+03
  2.383177e+01    1.324384e+03
  2.388489e+01    1.318151e+03
  2.393801e+01    1.315550e+03
  2.399113e+01    1.312337e+03
  2.404424e+01    1.311840e+03
  2.409736e+01    1.310872e+03
  2.415048e+01    1.306200e+03
  2.420360e+01    1.303197e+03
  2.425672e+01    1.298760e+03
  2.430983e+01    1.297740e+03
  2.436295e+01    1.293228e+03
  2.441607e+01    1.291719e+03
  2.446919e+01    1.290050e+03
  2.452231e+01    1.286609e+03
  2.457542e+01    1.286892e+03
  2.462854e+01    1.283693e+03
  2.468166e+01    1.282507e+03
  2.473478e+01    1.278790e+03
  2.478790e+01    1.271929e+03
  2.484102e+01    1.267108e+03
  2.489413e+01    1.264620e+03
  2.494725e+01    1.258492e+03
  2.500037e+01    1.256874e+03
  2.505349e+01    1.251130e+03
  2.510661e+01    1.244174e+03
  2.515972e+01    1.242576e+03
  2.521284e+01    1.240092e+03
  2.526596e+01    1.239134e+03
  2.531908e+01    1.234073e+03
  2.537220e+01    1.232867e+03
  2.542532e+01    1.230532e+03
  2.547843e+01    1.227922e+03
  2.553155e+01    1.221465e+03
  2.558467e+01    1.213587e+03
  2.563779e+01    1.208851e+03
  2.569091e+01    1.203488e+03
  2.574402e+01    1.193424e+03
  2.579714e+01    1.187049e+03
  2.585026e+01    1.180198e+03
  2.590338e+01    1.171854e+03
  2.595650e+01    1.172301e+03
  2.600962e+01    1.169375e+03
  2.606273e+01    1.171737e+03
  2.611585e+01    1.167614e+03
  2.616897e+01    1.169484e+03
  2.622209e+01    1.165054e+03
  2.627521e+01    1.160149e+03
  2.632832e+01    1.153728e+03
  2.638144e+01    1.156335e+03
  2.643456e+01    1.149558e+03
  2.648768e+01    1.135669e+03
  2.654080e+01    1.115467e+03
