# == pyFAI calibration ==
# Distance Sample to Detector: 0.2946421923531691 m
# PONI: 2.875e-01, 2.439e-01 m
# Rotations: -0.010990 -0.009181 0.000003 rad
# 
# == Fit2d calibration ==
# Distance Sample-beamCenter: 294.672 mm
# Center: x=1436.809, y=1655.851 pix
# Tilt: 0.820 deg  TiltPlanRot: -39.874 deg
# 
# Detector Pilatus 2M	 PixelSize= 1.720e-04, 1.720e-04 m
#    Detector has a mask: True 
#    Detector has a dark current: False 
#    detector has a flat field: False 
# 
# Wavelength: 2.0732883349524408e-11 m
# Mask applied: from detector
# Dark current applied: False
# Flat field applied: False
# Polarization factor: None
# Normalization factor: 1.0
# --> /gpfs/current/raw/FMue_3/FMue_3_20231024_175355_00169.dat
#        q_A^-1             I 
  3.483473e-02             nan
  8.795289e-02             nan
  1.410711e-01             nan
  1.941892e-01             nan
  2.473074e-01             nan
  3.004255e-01             nan
  3.535437e-01             nan
  4.066619e-01    1.157530e+04
  4.597800e-01    1.055200e+04
  5.128982e-01    8.938249e+03
  5.660163e-01    8.125304e+03
  6.191345e-01    7.816848e+03
  6.722527e-01    7.705670e+03
  7.253708e-01    7.748444e+03
  7.784890e-01    7.804542e+03
  8.316071e-01    7.939482e+03
  8.847253e-01    8.063786e+03
  9.378435e-01    8.230040e+03
  9.909616e-01    8.447756e+03
  1.044080e+00    8.762202e+03
  1.097198e+00    9.182348e+03
  1.150316e+00    9.783482e+03
  1.203434e+00    1.048638e+04
  1.256552e+00    1.136606e+04
  1.309671e+00    1.251852e+04
  1.362789e+00    1.358516e+04
  1.415907e+00    1.402954e+04
  1.469025e+00    1.412711e+04
  1.522143e+00    1.398335e+04
  1.575261e+00    1.342430e+04
  1.628380e+00    1.269681e+04
  1.681498e+00    1.177629e+04
  1.734616e+00    1.082786e+04
  1.787734e+00    1.002764e+04
  1.840852e+00    9.317065e+03
  1.893970e+00    8.738854e+03
  1.947089e+00    8.338098e+03
  2.000207e+00    8.042032e+03
  2.053325e+00    7.955935e+03
  2.106443e+00    8.388046e+03
  2.159561e+00    9.343206e+03
  2.212679e+00    9.590521e+03
  2.265797e+00    9.177006e+03
  2.318916e+00    8.451725e+03
  2.372034e+00    7.765481e+03
  2.425152e+00    8.010823e+03
  2.478270e+00    9.434678e+03
  2.531388e+00    1.255290e+04
  2.584506e+00    1.349107e+04
  2.637625e+00    1.050614e+04
  2.690743e+00    8.394164e+03
  2.743861e+00    7.558966e+03
  2.796979e+00    6.307410e+03
  2.850097e+00    5.437637e+03
  2.903215e+00    5.135745e+03
  2.956334e+00    5.084634e+03
  3.009452e+00    5.435666e+03
  3.062570e+00    6.897293e+03
  3.115688e+00    9.133723e+03
  3.168806e+00    8.883196e+03
  3.221924e+00    7.166135e+03
  3.275043e+00    5.647938e+03
  3.328161e+00    4.813949e+03
  3.381279e+00    4.589618e+03
  3.434397e+00    4.598005e+03
  3.487515e+00    4.682135e+03
  3.540633e+00    4.606242e+03
  3.593751e+00    4.524118e+03
  3.646870e+00    4.589574e+03
  3.699988e+00    4.752925e+03
  3.753106e+00    5.032891e+03
  3.806224e+00    5.256975e+03
  3.859342e+00    5.305213e+03
  3.912460e+00    5.566672e+03
  3.965579e+00    6.344605e+03
  4.018697e+00    7.216176e+03
  4.071815e+00    7.265566e+03
  4.124933e+00    6.705103e+03
  4.178051e+00    6.281466e+03
  4.231169e+00    6.137309e+03
  4.284288e+00    6.516731e+03
  4.337406e+00    8.064970e+03
  4.390524e+00    1.017465e+04
  4.443642e+00    1.182058e+04
  4.496760e+00    1.200881e+04
  4.549878e+00    8.374479e+03
  4.602997e+00    5.817767e+03
  4.656115e+00    5.199049e+03
  4.709233e+00    4.998479e+03
  4.762351e+00    4.947835e+03
  4.815469e+00    4.997242e+03
  4.868587e+00    5.118069e+03
  4.921705e+00    5.190411e+03
  4.974824e+00    5.277520e+03
  5.027942e+00    5.413494e+03
  5.081060e+00    5.584066e+03
  5.134178e+00    5.400226e+03
  5.187296e+00    4.980749e+03
  5.240414e+00    4.608132e+03
  5.293533e+00    4.408540e+03
  5.346651e+00    4.316876e+03
  5.399769e+00    4.236686e+03
  5.452887e+00    4.205447e+03
  5.506005e+00    4.078520e+03
  5.559123e+00    3.729750e+03
  5.612242e+00    3.563737e+03
  5.665360e+00    3.523553e+03
  5.718478e+00    3.507984e+03
  5.771596e+00    3.555514e+03
  5.824714e+00    3.640604e+03
  5.877832e+00    3.811640e+03
  5.930951e+00    4.050960e+03
  5.984069e+00    4.087010e+03
  6.037187e+00    3.899964e+03
  6.090305e+00    3.727806e+03
  6.143423e+00    3.690463e+03
  6.196541e+00    3.831815e+03
  6.249660e+00    3.954646e+03
  6.302778e+00    3.826983e+03
  6.355896e+00    3.571040e+03
  6.409014e+00    3.474648e+03
  6.462132e+00    3.411319e+03
  6.515250e+00    3.368495e+03
  6.568368e+00    3.393980e+03
  6.621487e+00    3.462492e+03
  6.674605e+00    3.567521e+03
  6.727723e+00    3.611447e+03
  6.780841e+00    3.468056e+03
  6.833959e+00    3.292585e+03
  6.887077e+00    3.200391e+03
  6.940196e+00    3.170374e+03
  6.993314e+00    3.198632e+03
  7.046432e+00    3.202153e+03
  7.099550e+00    3.128634e+03
  7.152668e+00    3.068222e+03
  7.205786e+00    3.022460e+03
  7.258905e+00    3.010314e+03
  7.312023e+00    3.072810e+03
  7.365141e+00    3.165178e+03
  7.418259e+00    3.208880e+03
  7.471377e+00    3.214556e+03
  7.524495e+00    3.279015e+03
  7.577614e+00    3.410556e+03
  7.630732e+00    3.446542e+03
  7.683850e+00    3.482083e+03
  7.736968e+00    3.550295e+03
  7.790086e+00    3.450766e+03
  7.843204e+00    3.279377e+03
  7.896322e+00    3.157018e+03
  7.949441e+00    3.117529e+03
  8.002559e+00    3.124832e+03
  8.055677e+00    3.089667e+03
  8.108795e+00    3.022854e+03
  8.161913e+00    2.973893e+03
  8.215031e+00    2.930482e+03
  8.268150e+00    2.884929e+03
  8.321268e+00    2.851633e+03
  8.374386e+00    2.829412e+03
  8.427504e+00    2.813440e+03
  8.480622e+00    2.800168e+03
  8.533740e+00    2.759247e+03
  8.586859e+00    2.792060e+03
  8.639977e+00    2.779453e+03
  8.693095e+00    2.769028e+03
  8.746213e+00    2.777979e+03
  8.799331e+00    2.764711e+03
  8.852449e+00    2.746096e+03
  8.905568e+00    2.746427e+03
  8.958686e+00    2.747581e+03
  9.011804e+00    2.741557e+03
  9.064922e+00    2.698203e+03
  9.118040e+00    2.664324e+03
  9.171158e+00    2.644149e+03
  9.224276e+00    2.607123e+03
  9.277395e+00    2.558683e+03
  9.330513e+00    2.530028e+03
  9.383631e+00    2.505859e+03
  9.436749e+00    2.495977e+03
  9.489867e+00    2.507364e+03
  9.542985e+00    2.515494e+03
  9.596104e+00    2.514368e+03
  9.649222e+00    2.520151e+03
  9.702340e+00    2.512568e+03
  9.755458e+00    2.499489e+03
  9.808576e+00    2.492533e+03
  9.861694e+00    2.490478e+03
  9.914813e+00    2.478724e+03
  9.967931e+00    2.457708e+03
  1.002105e+01    2.431657e+03
  1.007417e+01    2.408863e+03
  1.012729e+01    2.389602e+03
  1.018040e+01    2.371968e+03
  1.023352e+01    2.338131e+03
  1.028664e+01    2.305528e+03
  1.033976e+01    2.289248e+03
  1.039288e+01    2.308789e+03
  1.044599e+01    2.298914e+03
  1.049911e+01    2.301045e+03
  1.055223e+01    2.290367e+03
  1.060535e+01    2.291990e+03
  1.065847e+01    2.281403e+03
  1.071158e+01    2.272965e+03
  1.076470e+01    2.264571e+03
  1.081782e+01    2.259583e+03
  1.087094e+01    2.251049e+03
  1.092406e+01    2.263136e+03
  1.097718e+01    2.268570e+03
  1.103029e+01    2.267849e+03
  1.108341e+01    2.256222e+03
  1.113653e+01    2.237434e+03
  1.118965e+01    2.217771e+03
  1.124277e+01    2.207229e+03
  1.129588e+01    2.198662e+03
  1.134900e+01    2.193776e+03
  1.140212e+01    2.202157e+03
  1.145524e+01    2.205349e+03
  1.150836e+01    2.212371e+03
  1.156148e+01    2.209990e+03
  1.161459e+01    2.210223e+03
  1.166771e+01    2.192219e+03
  1.172083e+01    2.194188e+03
  1.177395e+01    2.176868e+03
  1.182707e+01    2.166209e+03
  1.188018e+01    2.168288e+03
  1.193330e+01    2.156128e+03
  1.198642e+01    2.135183e+03
  1.203954e+01    2.116683e+03
  1.209266e+01    2.113721e+03
  1.214578e+01    2.105735e+03
  1.219889e+01    2.111351e+03
  1.225201e+01    2.114460e+03
  1.230513e+01    2.106029e+03
  1.235825e+01    2.103906e+03
  1.241137e+01    2.089032e+03
  1.246448e+01    2.085421e+03
  1.251760e+01    2.081251e+03
  1.257072e+01    2.076316e+03
  1.262384e+01    2.082321e+03
  1.267696e+01    2.070729e+03
  1.273008e+01    2.056596e+03
  1.278319e+01    2.045767e+03
  1.283631e+01    2.034563e+03
  1.288943e+01    2.031060e+03
  1.294255e+01    2.018263e+03
  1.299567e+01    2.014671e+03
  1.304878e+01    2.008538e+03
  1.310190e+01    2.006041e+03
  1.315502e+01    2.002007e+03
  1.320814e+01    1.980749e+03
  1.326126e+01    1.956668e+03
  1.331437e+01    1.948544e+03
  1.336749e+01    1.941702e+03
  1.342061e+01    1.929252e+03
  1.347373e+01    1.951478e+03
  1.352685e+01    1.948798e+03
  1.357997e+01    1.937535e+03
  1.363308e+01    1.926251e+03
  1.368620e+01    1.922022e+03
  1.373932e+01    1.913120e+03
  1.379244e+01    1.907909e+03
  1.384556e+01    1.900503e+03
  1.389867e+01    1.890787e+03
  1.395179e+01    1.882230e+03
  1.400491e+01    1.880278e+03
  1.405803e+01    1.880126e+03
  1.411115e+01    1.871684e+03
  1.416427e+01    1.861030e+03
  1.421738e+01    1.856095e+03
  1.427050e+01    1.847889e+03
  1.432362e+01    1.849587e+03
  1.437674e+01    1.846579e+03
  1.442986e+01    1.835778e+03
  1.448297e+01    1.830315e+03
  1.453609e+01    1.822730e+03
  1.458921e+01    1.814381e+03
  1.464233e+01    1.809927e+03
  1.469545e+01    1.803387e+03
  1.474857e+01    1.784866e+03
  1.480168e+01    1.794923e+03
  1.485480e+01    1.789713e+03
  1.490792e+01    1.786392e+03
  1.496104e+01    1.779887e+03
  1.501416e+01    1.778224e+03
  1.506727e+01    1.773946e+03
  1.512039e+01    1.769807e+03
  1.517351e+01    1.781769e+03
  1.522663e+01    1.795743e+03
  1.527975e+01    1.793989e+03
  1.533286e+01    1.777112e+03
  1.538598e+01    1.769917e+03
  1.543910e+01    1.759809e+03
  1.549222e+01    1.755828e+03
  1.554534e+01    1.755727e+03
  1.559846e+01    1.752521e+03
  1.565157e+01    1.746672e+03
  1.570469e+01    1.741303e+03
  1.575781e+01    1.738640e+03
  1.581093e+01    1.734483e+03
  1.586405e+01    1.731823e+03
  1.591716e+01    1.727281e+03
  1.597028e+01    1.720215e+03
  1.602340e+01    1.705928e+03
  1.607652e+01    1.695543e+03
  1.612964e+01    1.671339e+03
  1.618276e+01    1.660560e+03
  1.623587e+01    1.661714e+03
  1.628899e+01    1.678070e+03
  1.634211e+01    1.675661e+03
  1.639523e+01    1.670892e+03
  1.644835e+01    1.672194e+03
  1.650146e+01    1.665727e+03
  1.655458e+01    1.666527e+03
  1.660770e+01    1.660606e+03
  1.666082e+01    1.656984e+03
  1.671394e+01    1.655735e+03
  1.676706e+01    1.650311e+03
  1.682017e+01    1.663571e+03
  1.687329e+01    1.653284e+03
  1.692641e+01    1.644878e+03
  1.697953e+01    1.642263e+03
  1.703265e+01    1.637789e+03
  1.708576e+01    1.636288e+03
  1.713888e+01    1.628997e+03
  1.719200e+01    1.626784e+03
  1.724512e+01    1.619969e+03
  1.729824e+01    1.619668e+03
  1.735136e+01    1.613905e+03
  1.740447e+01    1.592221e+03
  1.745759e+01    1.599329e+03
  1.751071e+01    1.601414e+03
  1.756383e+01    1.611973e+03
  1.761695e+01    1.597073e+03
  1.767006e+01    1.594863e+03
  1.772318e+01    1.584624e+03
  1.777630e+01    1.584684e+03
  1.782942e+01    1.575601e+03
  1.788254e+01    1.571859e+03
  1.793565e+01    1.569166e+03
  1.798877e+01    1.566788e+03
  1.804189e+01    1.561040e+03
  1.809501e+01    1.556515e+03
  1.814813e+01    1.553331e+03
  1.820125e+01    1.547070e+03
  1.825436e+01    1.552810e+03
  1.830748e+01    1.546769e+03
  1.836060e+01    1.540593e+03
  1.841372e+01    1.539815e+03
  1.846684e+01    1.536043e+03
  1.851995e+01    1.516940e+03
  1.857307e+01    1.502516e+03
  1.862619e+01    1.491704e+03
  1.867931e+01    1.490208e+03
  1.873243e+01    1.508872e+03
  1.878555e+01    1.509518e+03
  1.883866e+01    1.507678e+03
  1.889178e+01    1.507976e+03
  1.894490e+01    1.519635e+03
  1.899802e+01    1.511125e+03
  1.905114e+01    1.505362e+03
  1.910425e+01    1.499880e+03
  1.915737e+01    1.496221e+03
  1.921049e+01    1.492290e+03
  1.926361e+01    1.488549e+03
  1.931673e+01    1.486272e+03
  1.936985e+01    1.483792e+03
  1.942296e+01    1.481389e+03
  1.947608e+01    1.479463e+03
  1.952920e+01    1.476702e+03
  1.958232e+01    1.476812e+03
  1.963544e+01    1.481680e+03
  1.968855e+01    1.467894e+03
  1.974167e+01    1.456854e+03
  1.979479e+01    1.461187e+03
  1.984791e+01    1.461035e+03
  1.990103e+01    1.457121e+03
  1.995414e+01    1.456339e+03
  2.000726e+01    1.453325e+03
  2.006038e+01    1.449257e+03
  2.011350e+01    1.444204e+03
  2.016662e+01    1.438465e+03
  2.021974e+01    1.442905e+03
  2.027285e+01    1.447922e+03
  2.032597e+01    1.431626e+03
  2.037909e+01    1.427815e+03
  2.043221e+01    1.423787e+03
  2.048533e+01    1.422605e+03
  2.053844e+01    1.421143e+03
  2.059156e+01    1.414975e+03
  2.064468e+01    1.412300e+03
  2.069780e+01    1.393679e+03
  2.075092e+01    1.370143e+03
  2.080404e+01    1.355925e+03
  2.085715e+01    1.375085e+03
  2.091027e+01    1.401777e+03
  2.096339e+01    1.407133e+03
  2.101651e+01    1.412424e+03
  2.106963e+01    1.416873e+03
  2.112274e+01    1.418389e+03
  2.117586e+01    1.422031e+03
  2.122898e+01    1.423877e+03
  2.128210e+01    1.421118e+03
  2.133522e+01    1.422434e+03
  2.138834e+01    1.419919e+03
  2.144145e+01    1.420764e+03
  2.149457e+01    1.419853e+03
  2.154769e+01    1.418850e+03
  2.160081e+01    1.418622e+03
  2.165393e+01    1.419768e+03
  2.170704e+01    1.419451e+03
  2.176016e+01    1.408786e+03
  2.181328e+01    1.417143e+03
  2.186640e+01    1.419813e+03
  2.191952e+01    1.418025e+03
  2.197263e+01    1.415108e+03
  2.202575e+01    1.412626e+03
  2.207887e+01    1.412866e+03
  2.213199e+01    1.411634e+03
  2.218511e+01    1.409585e+03
  2.223823e+01    1.409212e+03
  2.229134e+01    1.408534e+03
  2.234446e+01    1.407620e+03
  2.239758e+01    1.407206e+03
  2.245070e+01    1.404422e+03
  2.250382e+01    1.406789e+03
  2.255693e+01    1.402102e+03
  2.261005e+01    1.384239e+03
  2.266317e+01    1.372681e+03
  2.271629e+01    1.364503e+03
  2.276941e+01    1.354755e+03
  2.282253e+01    1.347939e+03
  2.287564e+01    1.345096e+03
  2.292876e+01    1.339439e+03
  2.298188e+01    1.335868e+03
  2.303500e+01    1.334278e+03
  2.308812e+01    1.331771e+03
  2.314123e+01    1.330307e+03
  2.319435e+01    1.324356e+03
  2.324747e+01    1.317972e+03
  2.330059e+01    1.314871e+03
  2.335371e+01    1.312040e+03
  2.340683e+01    1.306791e+03
  2.345994e+01    1.305268e+03
  2.351306e+01    1.301124e+03
  2.356618e+01    1.296429e+03
  2.361930e+01    1.292003e+03
  2.367242e+01    1.286282e+03
  2.372553e+01    1.280854e+03
  2.377865e+01    1.276233e+03
  2.383177e+01    1.269658e+03
  2.388489e+01    1.266798e+03
  2.393801e+01    1.262798e+03
  2.399113e+01    1.261137e+03
  2.404424e+01    1.261697e+03
  2.409736e+01    1.260976e+03
  2.415048e+01    1.256587e+03
  2.420360e+01    1.253690e+03
  2.425672e+01    1.250319e+03
  2.430983e+01    1.247399e+03
  2.436295e+01    1.246486e+03
  2.441607e+01    1.243676e+03
  2.446919e+01    1.241986e+03
  2.452231e+01    1.241181e+03
  2.457542e+01    1.236582e+03
  2.462854e+01    1.233965e+03
  2.468166e+01    1.232996e+03
  2.473478e+01    1.229076e+03
  2.478790e+01    1.221370e+03
  2.484102e+01    1.219411e+03
  2.489413e+01    1.214084e+03
  2.494725e+01    1.210053e+03
  2.500037e+01    1.207490e+03
  2.505349e+01    1.199794e+03
  2.510661e+01    1.196060e+03
  2.515972e+01    1.192316e+03
  2.521284e+01    1.193074e+03
  2.526596e+01    1.193104e+03
  2.531908e+01    1.187068e+03
  2.537220e+01    1.185855e+03
  2.542532e+01    1.183544e+03
  2.547843e+01    1.182841e+03
  2.553155e+01    1.178072e+03
  2.558467e+01    1.169840e+03
  2.563779e+01    1.164193e+03
  2.569091e+01    1.159454e+03
  2.574402e+01    1.151199e+03
  2.579714e+01    1.143460e+03
  2.585026e+01    1.137314e+03
  2.590338e+01    1.130703e+03
  2.595650e+01    1.129025e+03
  2.600962e+01    1.127573e+03
  2.606273e+01    1.127791e+03
  2.611585e+01    1.123252e+03
  2.616897e+01    1.121615e+03
  2.622209e+01    1.126070e+03
  2.627521e+01    1.115379e+03
  2.632832e+01    1.112387e+03
  2.638144e+01    1.113562e+03
  2.643456e+01    1.103613e+03
  2.648768e+01    1.091356e+03
  2.654080e+01    1.062604e+03
