# == pyFAI calibration ==
# Distance Sample to Detector: 0.2946421923531691 m
# PONI: 2.875e-01, 2.439e-01 m
# Rotations: -0.010990 -0.009181 0.000003 rad
# 
# == Fit2d calibration ==
# Distance Sample-beamCenter: 294.672 mm
# Center: x=1436.809, y=1655.851 pix
# Tilt: 0.820 deg  TiltPlanRot: -39.874 deg
# 
# Detector Pilatus 2M	 PixelSize= 1.720e-04, 1.720e-04 m
#    Detector has a mask: True 
#    Detector has a dark current: False 
#    detector has a flat field: False 
# 
# Wavelength: 2.0732883349524408e-11 m
# Mask applied: from detector
# Dark current applied: False
# Flat field applied: False
# Polarization factor: None
# Normalization factor: 1.0
# --> /gpfs/current/raw/FMue_3/FMue_3_20231024_175355_00073.dat
#        q_A^-1             I 
  3.483473e-02             nan
  8.795289e-02             nan
  1.410711e-01             nan
  1.941892e-01             nan
  2.473074e-01             nan
  3.004255e-01             nan
  3.535437e-01             nan
  4.066619e-01    1.414159e+04
  4.597800e-01    1.281079e+04
  5.128982e-01    1.090140e+04
  5.660163e-01    9.855354e+03
  6.191345e-01    9.415738e+03
  6.722527e-01    9.192060e+03
  7.253708e-01    9.162768e+03
  7.784890e-01    9.226562e+03
  8.316071e-01    9.488604e+03
  8.847253e-01    9.808729e+03
  9.378435e-01    1.030764e+04
  9.909616e-01    1.093454e+04
  1.044080e+00    1.084159e+04
  1.097198e+00    1.036393e+04
  1.150316e+00    1.059744e+04
  1.203434e+00    1.128262e+04
  1.256552e+00    1.222649e+04
  1.309671e+00    1.285348e+04
  1.362789e+00    1.377690e+04
  1.415907e+00    1.445308e+04
  1.469025e+00    1.469251e+04
  1.522143e+00    1.460886e+04
  1.575261e+00    1.404691e+04
  1.628380e+00    1.333562e+04
  1.681498e+00    1.243550e+04
  1.734616e+00    1.151664e+04
  1.787734e+00    1.072596e+04
  1.840852e+00    1.006382e+04
  1.893970e+00    9.553097e+03
  1.947089e+00    9.447671e+03
  2.000207e+00    9.049646e+03
  2.053325e+00    8.379948e+03
  2.106443e+00    8.220231e+03
  2.159561e+00    8.444949e+03
  2.212679e+00    8.668414e+03
  2.265797e+00    8.941448e+03
  2.318916e+00    8.829177e+03
  2.372034e+00    8.414671e+03
  2.425152e+00    8.629730e+03
  2.478270e+00    9.004477e+03
  2.531388e+00    9.789523e+03
  2.584506e+00    1.021236e+04
  2.637625e+00    9.779869e+03
  2.690743e+00    9.061856e+03
  2.743861e+00    8.396474e+03
  2.796979e+00    7.193968e+03
  2.850097e+00    6.250279e+03
  2.903215e+00    5.914522e+03
  2.956334e+00    5.819356e+03
  3.009452e+00    5.945418e+03
  3.062570e+00    6.659620e+03
  3.115688e+00    8.561748e+03
  3.168806e+00    9.167746e+03
  3.221924e+00    7.850260e+03
  3.275043e+00    6.433704e+03
  3.328161e+00    5.820092e+03
  3.381279e+00    5.920314e+03
  3.434397e+00    5.511913e+03
  3.487515e+00    5.256915e+03
  3.540633e+00    5.177886e+03
  3.593751e+00    5.004176e+03
  3.646870e+00    4.986146e+03
  3.699988e+00    5.067033e+03
  3.753106e+00    5.223162e+03
  3.806224e+00    5.306656e+03
  3.859342e+00    5.344736e+03
  3.912460e+00    5.457463e+03
  3.965579e+00    5.672187e+03
  4.018697e+00    6.092076e+03
  4.071815e+00    6.685052e+03
  4.124933e+00    7.028455e+03
  4.178051e+00    7.008674e+03
  4.231169e+00    6.836817e+03
  4.284288e+00    6.906906e+03
  4.337406e+00    7.415803e+03
  4.390524e+00    8.197916e+03
  4.443642e+00    1.042252e+04
  4.496760e+00    1.236059e+04
  4.549878e+00    9.327782e+03
  4.602997e+00    6.268807e+03
  4.656115e+00    5.543446e+03
  4.709233e+00    5.420266e+03
  4.762351e+00    5.552262e+03
  4.815469e+00    5.508335e+03
  4.868587e+00    5.362548e+03
  4.921705e+00    5.330484e+03
  4.974824e+00    5.359404e+03
  5.027942e+00    5.325723e+03
  5.081060e+00    5.317267e+03
  5.134178e+00    5.216373e+03
  5.187296e+00    5.067205e+03
  5.240414e+00    4.858485e+03
  5.293533e+00    4.703641e+03
  5.346651e+00    4.550372e+03
  5.399769e+00    4.410226e+03
  5.452887e+00    4.406911e+03
  5.506005e+00    4.426309e+03
  5.559123e+00    4.086061e+03
  5.612242e+00    3.802885e+03
  5.665360e+00    3.706519e+03
  5.718478e+00    3.602044e+03
  5.771596e+00    3.523453e+03
  5.824714e+00    3.521146e+03
  5.877832e+00    3.571500e+03
  5.930951e+00    3.673591e+03
  5.984069e+00    3.784108e+03
  6.037187e+00    3.848363e+03
  6.090305e+00    3.829936e+03
  6.143423e+00    3.758394e+03
  6.196541e+00    3.817701e+03
  6.249660e+00    4.023328e+03
  6.302778e+00    4.061844e+03
  6.355896e+00    3.845425e+03
  6.409014e+00    3.714596e+03
  6.462132e+00    3.628094e+03
  6.515250e+00    3.535856e+03
  6.568368e+00    3.511112e+03
  6.621487e+00    3.485348e+03
  6.674605e+00    3.465747e+03
  6.727723e+00    3.495867e+03
  6.780841e+00    3.481501e+03
  6.833959e+00    3.426611e+03
  6.887077e+00    3.369217e+03
  6.940196e+00    3.319574e+03
  6.993314e+00    3.349661e+03
  7.046432e+00    3.397373e+03
  7.099550e+00    3.344693e+03
  7.152668e+00    3.276073e+03
  7.205786e+00    3.226533e+03
  7.258905e+00    3.168497e+03
  7.312023e+00    3.143891e+03
  7.365141e+00    3.156844e+03
  7.418259e+00    3.184134e+03
  7.471377e+00    3.220324e+03
  7.524495e+00    3.264658e+03
  7.577614e+00    3.301820e+03
  7.630732e+00    3.320538e+03
  7.683850e+00    3.447521e+03
  7.736968e+00    3.651468e+03
  7.790086e+00    3.641425e+03
  7.843204e+00    3.427813e+03
  7.896322e+00    3.209294e+03
  7.949441e+00    3.080538e+03
  8.002559e+00    3.037150e+03
  8.055677e+00    3.035049e+03
  8.108795e+00    3.043576e+03
  8.161913e+00    3.063298e+03
  8.215031e+00    3.044312e+03
  8.268150e+00    2.999143e+03
  8.321268e+00    2.957827e+03
  8.374386e+00    2.939451e+03
  8.427504e+00    2.923168e+03
  8.480622e+00    2.898303e+03
  8.533740e+00    2.835812e+03
  8.586859e+00    2.862176e+03
  8.639977e+00    2.857818e+03
  8.693095e+00    2.847661e+03
  8.746213e+00    2.837693e+03
  8.799331e+00    2.817220e+03
  8.852449e+00    2.807326e+03
  8.905568e+00    2.827935e+03
  8.958686e+00    2.840209e+03
  9.011804e+00    2.848629e+03
  9.064922e+00    2.777709e+03
  9.118040e+00    2.698373e+03
  9.171158e+00    2.662748e+03
  9.224276e+00    2.648570e+03
  9.277395e+00    2.622918e+03
  9.330513e+00    2.610539e+03
  9.383631e+00    2.606237e+03
  9.436749e+00    2.601752e+03
  9.489867e+00    2.604291e+03
  9.542985e+00    2.596609e+03
  9.596104e+00    2.568703e+03
  9.649222e+00    2.550859e+03
  9.702340e+00    2.542405e+03
  9.755458e+00    2.537136e+03
  9.808576e+00    2.531190e+03
  9.861694e+00    2.537184e+03
  9.914813e+00    2.544892e+03
  9.967931e+00    2.536235e+03
  1.002105e+01    2.497024e+03
  1.007417e+01    2.446777e+03
  1.012729e+01    2.417340e+03
  1.018040e+01    2.415584e+03
  1.023352e+01    2.406182e+03
  1.028664e+01    2.386133e+03
  1.033976e+01    2.374916e+03
  1.039288e+01    2.394658e+03
  1.044599e+01    2.381442e+03
  1.049911e+01    2.381600e+03
  1.055223e+01    2.360272e+03
  1.060535e+01    2.354365e+03
  1.065847e+01    2.349241e+03
  1.071158e+01    2.342415e+03
  1.076470e+01    2.333724e+03
  1.081782e+01    2.333466e+03
  1.087094e+01    2.317731e+03
  1.092406e+01    2.321955e+03
  1.097718e+01    2.321279e+03
  1.103029e+01    2.317443e+03
  1.108341e+01    2.310642e+03
  1.113653e+01    2.297053e+03
  1.118965e+01    2.283243e+03
  1.124277e+01    2.275080e+03
  1.129588e+01    2.268876e+03
  1.134900e+01    2.257972e+03
  1.140212e+01    2.253176e+03
  1.145524e+01    2.241410e+03
  1.150836e+01    2.244096e+03
  1.156148e+01    2.235281e+03
  1.161459e+01    2.238003e+03
  1.166771e+01    2.233470e+03
  1.172083e+01    2.246695e+03
  1.177395e+01    2.234883e+03
  1.182707e+01    2.231300e+03
  1.188018e+01    2.234543e+03
  1.193330e+01    2.220938e+03
  1.198642e+01    2.203492e+03
  1.203954e+01    2.183552e+03
  1.209266e+01    2.172581e+03
  1.214578e+01    2.161145e+03
  1.219889e+01    2.165000e+03
  1.225201e+01    2.163259e+03
  1.230513e+01    2.157885e+03
  1.235825e+01    2.163867e+03
  1.241137e+01    2.151515e+03
  1.246448e+01    2.154484e+03
  1.251760e+01    2.152307e+03
  1.257072e+01    2.146798e+03
  1.262384e+01    2.150119e+03
  1.267696e+01    2.135323e+03
  1.273008e+01    2.120892e+03
  1.278319e+01    2.110005e+03
  1.283631e+01    2.101949e+03
  1.288943e+01    2.095133e+03
  1.294255e+01    2.082883e+03
  1.299567e+01    2.077746e+03
  1.304878e+01    2.068947e+03
  1.310190e+01    2.065410e+03
  1.315502e+01    2.058715e+03
  1.320814e+01    2.033147e+03
  1.326126e+01    2.007302e+03
  1.331437e+01    1.993998e+03
  1.336749e+01    1.987111e+03
  1.342061e+01    1.973798e+03
  1.347373e+01    1.999802e+03
  1.352685e+01    2.003742e+03
  1.357997e+01    1.991473e+03
  1.363308e+01    1.982585e+03
  1.368620e+01    1.973683e+03
  1.373932e+01    1.962377e+03
  1.379244e+01    1.957190e+03
  1.384556e+01    1.950808e+03
  1.389867e+01    1.943758e+03
  1.395179e+01    1.936065e+03
  1.400491e+01    1.934265e+03
  1.405803e+01    1.932274e+03
  1.411115e+01    1.923937e+03
  1.416427e+01    1.914267e+03
  1.421738e+01    1.909538e+03
  1.427050e+01    1.902495e+03
  1.432362e+01    1.904430e+03
  1.437674e+01    1.901773e+03
  1.442986e+01    1.887661e+03
  1.448297e+01    1.881448e+03
  1.453609e+01    1.874444e+03
  1.458921e+01    1.866734e+03
  1.464233e+01    1.861877e+03
  1.469545e+01    1.855838e+03
  1.474857e+01    1.834491e+03
  1.480168e+01    1.848385e+03
  1.485480e+01    1.846242e+03
  1.490792e+01    1.841401e+03
  1.496104e+01    1.834022e+03
  1.501416e+01    1.831943e+03
  1.506727e+01    1.825828e+03
  1.512039e+01    1.822987e+03
  1.517351e+01    1.836425e+03
  1.522663e+01    1.851059e+03
  1.527975e+01    1.845593e+03
  1.533286e+01    1.827966e+03
  1.538598e+01    1.818602e+03
  1.543910e+01    1.809778e+03
  1.549222e+01    1.807425e+03
  1.554534e+01    1.806859e+03
  1.559846e+01    1.805959e+03
  1.565157e+01    1.796917e+03
  1.570469e+01    1.791961e+03
  1.575781e+01    1.787821e+03
  1.581093e+01    1.784922e+03
  1.586405e+01    1.781397e+03
  1.591716e+01    1.775246e+03
  1.597028e+01    1.771400e+03
  1.602340e+01    1.756265e+03
  1.607652e+01    1.746099e+03
  1.612964e+01    1.724354e+03
  1.618276e+01    1.710211e+03
  1.623587e+01    1.711888e+03
  1.628899e+01    1.729300e+03
  1.634211e+01    1.726679e+03
  1.639523e+01    1.721301e+03
  1.644835e+01    1.723529e+03
  1.650146e+01    1.715529e+03
  1.655458e+01    1.715355e+03
  1.660770e+01    1.709092e+03
  1.666082e+01    1.704345e+03
  1.671394e+01    1.704934e+03
  1.676706e+01    1.700903e+03
  1.682017e+01    1.713890e+03
  1.687329e+01    1.703604e+03
  1.692641e+01    1.695800e+03
  1.697953e+01    1.690804e+03
  1.703265e+01    1.688490e+03
  1.708576e+01    1.685760e+03
  1.713888e+01    1.677668e+03
  1.719200e+01    1.676814e+03
  1.724512e+01    1.669663e+03
  1.729824e+01    1.669256e+03
  1.735136e+01    1.663163e+03
  1.740447e+01    1.642143e+03
  1.745759e+01    1.648715e+03
  1.751071e+01    1.650406e+03
  1.756383e+01    1.661792e+03
  1.761695e+01    1.644300e+03
  1.767006e+01    1.640238e+03
  1.772318e+01    1.630636e+03
  1.777630e+01    1.629892e+03
  1.782942e+01    1.621447e+03
  1.788254e+01    1.617157e+03
  1.793565e+01    1.613784e+03
  1.798877e+01    1.614042e+03
  1.804189e+01    1.606030e+03
  1.809501e+01    1.601639e+03
  1.814813e+01    1.599724e+03
  1.820125e+01    1.594654e+03
  1.825436e+01    1.600193e+03
  1.830748e+01    1.594194e+03
  1.836060e+01    1.589008e+03
  1.841372e+01    1.587233e+03
  1.846684e+01    1.581516e+03
  1.851995e+01    1.563493e+03
  1.857307e+01    1.547287e+03
  1.862619e+01    1.537350e+03
  1.867931e+01    1.534924e+03
  1.873243e+01    1.553513e+03
  1.878555e+01    1.556854e+03
  1.883866e+01    1.555634e+03
  1.889178e+01    1.554575e+03
  1.894490e+01    1.565290e+03
  1.899802e+01    1.555873e+03
  1.905114e+01    1.550885e+03
  1.910425e+01    1.546406e+03
  1.915737e+01    1.542649e+03
  1.921049e+01    1.536127e+03
  1.926361e+01    1.534159e+03
  1.931673e+01    1.531098e+03
  1.936985e+01    1.529872e+03
  1.942296e+01    1.526513e+03
  1.947608e+01    1.526598e+03
  1.952920e+01    1.522016e+03
  1.958232e+01    1.522116e+03
  1.963544e+01    1.528523e+03
  1.968855e+01    1.514823e+03
  1.974167e+01    1.501864e+03
  1.979479e+01    1.507377e+03
  1.984791e+01    1.505808e+03
  1.990103e+01    1.504481e+03
  1.995414e+01    1.502319e+03
  2.000726e+01    1.499905e+03
  2.006038e+01    1.495878e+03
  2.011350e+01    1.491859e+03
  2.016662e+01    1.486069e+03
  2.021974e+01    1.488943e+03
  2.027285e+01    1.494771e+03
  2.032597e+01    1.479602e+03
  2.037909e+01    1.475066e+03
  2.043221e+01    1.470163e+03
  2.048533e+01    1.468431e+03
  2.053844e+01    1.467312e+03
  2.059156e+01    1.462126e+03
  2.064468e+01    1.458166e+03
  2.069780e+01    1.440421e+03
  2.075092e+01    1.415445e+03
  2.080404e+01    1.401266e+03
  2.085715e+01    1.420668e+03
  2.091027e+01    1.447312e+03
  2.096339e+01    1.454052e+03
  2.101651e+01    1.459532e+03
  2.106963e+01    1.462458e+03
  2.112274e+01    1.465693e+03
  2.117586e+01    1.468003e+03
  2.122898e+01    1.470244e+03
  2.128210e+01    1.468030e+03
  2.133522e+01    1.467370e+03
  2.138834e+01    1.465192e+03
  2.144145e+01    1.467017e+03
  2.149457e+01    1.465569e+03
  2.154769e+01    1.466286e+03
  2.160081e+01    1.464872e+03
  2.165393e+01    1.465202e+03
  2.170704e+01    1.466211e+03
  2.176016e+01    1.455403e+03
  2.181328e+01    1.463643e+03
  2.186640e+01    1.464567e+03
  2.191952e+01    1.463973e+03
  2.197263e+01    1.460436e+03
  2.202575e+01    1.458219e+03
  2.207887e+01    1.458120e+03
  2.213199e+01    1.456164e+03
  2.218511e+01    1.456722e+03
  2.223823e+01    1.455887e+03
  2.229134e+01    1.452486e+03
  2.234446e+01    1.451444e+03
  2.239758e+01    1.452151e+03
  2.245070e+01    1.448627e+03
  2.250382e+01    1.451302e+03
  2.255693e+01    1.447930e+03
  2.261005e+01    1.428616e+03
  2.266317e+01    1.416693e+03
  2.271629e+01    1.408253e+03
  2.276941e+01    1.398604e+03
  2.282253e+01    1.390587e+03
  2.287564e+01    1.388198e+03
  2.292876e+01    1.383834e+03
  2.298188e+01    1.379439e+03
  2.303500e+01    1.377072e+03
  2.308812e+01    1.374544e+03
  2.314123e+01    1.373729e+03
  2.319435e+01    1.367318e+03
  2.324747e+01    1.361754e+03
  2.330059e+01    1.358375e+03
  2.335371e+01    1.355833e+03
  2.340683e+01    1.350174e+03
  2.345994e+01    1.348182e+03
  2.351306e+01    1.343790e+03
  2.356618e+01    1.341574e+03
  2.361930e+01    1.334415e+03
  2.367242e+01    1.330040e+03
  2.372553e+01    1.325629e+03
  2.377865e+01    1.319651e+03
  2.383177e+01    1.314393e+03
  2.388489e+01    1.309732e+03
  2.393801e+01    1.303722e+03
  2.399113e+01    1.303637e+03
  2.404424e+01    1.302200e+03
  2.409736e+01    1.300466e+03
  2.415048e+01    1.297078e+03
  2.420360e+01    1.293745e+03
  2.425672e+01    1.290252e+03
  2.430983e+01    1.286557e+03
  2.436295e+01    1.285898e+03
  2.441607e+01    1.283073e+03
  2.446919e+01    1.281111e+03
  2.452231e+01    1.277923e+03
  2.457542e+01    1.276688e+03
  2.462854e+01    1.274200e+03
  2.468166e+01    1.272161e+03
  2.473478e+01    1.267894e+03
  2.478790e+01    1.262003e+03
  2.484102e+01    1.258631e+03
  2.489413e+01    1.255893e+03
  2.494725e+01    1.249727e+03
  2.500037e+01    1.245619e+03
  2.505349e+01    1.239659e+03
  2.510661e+01    1.234797e+03
  2.515972e+01    1.232705e+03
  2.521284e+01    1.231444e+03
  2.526596e+01    1.230459e+03
  2.531908e+01    1.225689e+03
  2.537220e+01    1.223779e+03
  2.542532e+01    1.220138e+03
  2.547843e+01    1.220665e+03
  2.553155e+01    1.213944e+03
  2.558467e+01    1.211476e+03
  2.563779e+01    1.200337e+03
  2.569091e+01    1.194211e+03
  2.574402e+01    1.186683e+03
  2.579714e+01    1.177869e+03
  2.585026e+01    1.170618e+03
  2.590338e+01    1.166696e+03
  2.595650e+01    1.164206e+03
  2.600962e+01    1.160439e+03
  2.606273e+01    1.159669e+03
  2.611585e+01    1.160264e+03
  2.616897e+01    1.158204e+03
  2.622209e+01    1.157570e+03
  2.627521e+01    1.155872e+03
  2.632832e+01    1.147123e+03
  2.638144e+01    1.145586e+03
  2.643456e+01    1.136830e+03
  2.648768e+01    1.119336e+03
  2.654080e+01    1.097945e+03
