# == pyFAI calibration ==
# Distance Sample to Detector: 0.2946421923531691 m
# PONI: 2.875e-01, 2.439e-01 m
# Rotations: -0.010990 -0.009181 0.000003 rad
# 
# == Fit2d calibration ==
# Distance Sample-beamCenter: 294.672 mm
# Center: x=1436.809, y=1655.851 pix
# Tilt: 0.820 deg  TiltPlanRot: -39.874 deg
# 
# Detector Pilatus 2M	 PixelSize= 1.720e-04, 1.720e-04 m
#    Detector has a mask: True 
#    Detector has a dark current: False 
#    detector has a flat field: False 
# 
# Wavelength: 2.0732883349524408e-11 m
# Mask applied: from detector
# Dark current applied: False
# Flat field applied: False
# Polarization factor: None
# Normalization factor: 1.0
# --> /gpfs/current/raw/FMue_3/FMue_3_20231024_175355_00106.dat
#        q_A^-1             I 
  3.483473e-02             nan
  8.795289e-02             nan
  1.410711e-01             nan
  1.941892e-01             nan
  2.473074e-01             nan
  3.004255e-01             nan
  3.535437e-01             nan
  4.066619e-01    1.330058e+04
  4.597800e-01    1.211859e+04
  5.128982e-01    1.022647e+04
  5.660163e-01    9.185346e+03
  6.191345e-01    8.726290e+03
  6.722527e-01    8.501883e+03
  7.253708e-01    8.474862e+03
  7.784890e-01    8.483096e+03
  8.316071e-01    8.638254e+03
  8.847253e-01    8.816852e+03
  9.378435e-01    9.259659e+03
  9.909616e-01    9.949384e+03
  1.044080e+00    1.006397e+04
  1.097198e+00    9.874915e+03
  1.150316e+00    1.028577e+04
  1.203434e+00    1.098695e+04
  1.256552e+00    1.183085e+04
  1.309671e+00    1.286346e+04
  1.362789e+00    1.391616e+04
  1.415907e+00    1.441833e+04
  1.469025e+00    1.451884e+04
  1.522143e+00    1.434295e+04
  1.575261e+00    1.372098e+04
  1.628380e+00    1.297168e+04
  1.681498e+00    1.204884e+04
  1.734616e+00    1.109637e+04
  1.787734e+00    1.026837e+04
  1.840852e+00    9.587627e+03
  1.893970e+00    9.102956e+03
  1.947089e+00    9.033640e+03
  2.000207e+00    8.750650e+03
  2.053325e+00    8.266230e+03
  2.106443e+00    8.337610e+03
  2.159561e+00    8.782459e+03
  2.212679e+00    9.052075e+03
  2.265797e+00    9.119041e+03
  2.318916e+00    8.696812e+03
  2.372034e+00    8.026204e+03
  2.425152e+00    8.248809e+03
  2.478270e+00    9.230174e+03
  2.531388e+00    1.102580e+04
  2.584506e+00    1.199017e+04
  2.637625e+00    1.085928e+04
  2.690743e+00    9.244806e+03
  2.743861e+00    8.096385e+03
  2.796979e+00    6.669419e+03
  2.850097e+00    5.676414e+03
  2.903215e+00    5.353301e+03
  2.956334e+00    5.282294e+03
  3.009452e+00    5.578861e+03
  3.062570e+00    6.736001e+03
  3.115688e+00    9.034982e+03
  3.168806e+00    9.342056e+03
  3.221924e+00    7.613853e+03
  3.275043e+00    6.063351e+03
  3.328161e+00    5.400458e+03
  3.381279e+00    5.427514e+03
  3.434397e+00    5.158583e+03
  3.487515e+00    4.920021e+03
  3.540633e+00    4.838713e+03
  3.593751e+00    4.699667e+03
  3.646870e+00    4.708915e+03
  3.699988e+00    4.856786e+03
  3.753106e+00    5.079771e+03
  3.806224e+00    5.237150e+03
  3.859342e+00    5.360781e+03
  3.912460e+00    5.599250e+03
  3.965579e+00    6.038877e+03
  4.018697e+00    6.615663e+03
  4.071815e+00    7.013663e+03
  4.124933e+00    6.890047e+03
  4.178051e+00    6.541777e+03
  4.231169e+00    6.367409e+03
  4.284288e+00    6.693402e+03
  4.337406e+00    7.819480e+03
  4.390524e+00    9.384197e+03
  4.443642e+00    1.166346e+04
  4.496760e+00    1.270331e+04
  4.549878e+00    9.068249e+03
  4.602997e+00    6.067652e+03
  4.656115e+00    5.353160e+03
  4.709233e+00    5.205558e+03
  4.762351e+00    5.288114e+03
  4.815469e+00    5.248664e+03
  4.868587e+00    5.167271e+03
  4.921705e+00    5.195312e+03
  4.974824e+00    5.287123e+03
  5.027942e+00    5.354777e+03
  5.081060e+00    5.444248e+03
  5.134178e+00    5.382528e+03
  5.187296e+00    5.149299e+03
  5.240414e+00    4.832600e+03
  5.293533e+00    4.612332e+03
  5.346651e+00    4.474675e+03
  5.399769e+00    4.375815e+03
  5.452887e+00    4.360463e+03
  5.506005e+00    4.319383e+03
  5.559123e+00    3.963234e+03
  5.612242e+00    3.705491e+03
  5.665360e+00    3.623568e+03
  5.718478e+00    3.548517e+03
  5.771596e+00    3.527952e+03
  5.824714e+00    3.588778e+03
  5.877832e+00    3.713604e+03
  5.930951e+00    3.880805e+03
  5.984069e+00    3.997473e+03
  6.037187e+00    3.976948e+03
  6.090305e+00    3.862986e+03
  6.143423e+00    3.748111e+03
  6.196541e+00    3.811848e+03
  6.249660e+00    3.987811e+03
  6.302778e+00    3.952480e+03
  6.355896e+00    3.685181e+03
  6.409014e+00    3.549397e+03
  6.462132e+00    3.478473e+03
  6.515250e+00    3.415233e+03
  6.568368e+00    3.429486e+03
  6.621487e+00    3.461849e+03
  6.674605e+00    3.509788e+03
  6.727723e+00    3.576454e+03
  6.780841e+00    3.554445e+03
  6.833959e+00    3.454764e+03
  6.887077e+00    3.354870e+03
  6.940196e+00    3.283149e+03
  6.993314e+00    3.314231e+03
  7.046432e+00    3.328731e+03
  7.099550e+00    3.242159e+03
  7.152668e+00    3.165907e+03
  7.205786e+00    3.116201e+03
  7.258905e+00    3.078394e+03
  7.312023e+00    3.100581e+03
  7.365141e+00    3.157358e+03
  7.418259e+00    3.210889e+03
  7.471377e+00    3.258472e+03
  7.524495e+00    3.323084e+03
  7.577614e+00    3.403240e+03
  7.630732e+00    3.470151e+03
  7.683850e+00    3.575239e+03
  7.736968e+00    3.703026e+03
  7.790086e+00    3.623447e+03
  7.843204e+00    3.404645e+03
  7.896322e+00    3.216694e+03
  7.949441e+00    3.128242e+03
  8.002559e+00    3.110344e+03
  8.055677e+00    3.109199e+03
  8.108795e+00    3.096787e+03
  8.161913e+00    3.069356e+03
  8.215031e+00    3.011393e+03
  8.268150e+00    2.947496e+03
  8.321268e+00    2.903354e+03
  8.374386e+00    2.883251e+03
  8.427504e+00    2.863951e+03
  8.480622e+00    2.840626e+03
  8.533740e+00    2.785195e+03
  8.586859e+00    2.819206e+03
  8.639977e+00    2.819786e+03
  8.693095e+00    2.809375e+03
  8.746213e+00    2.812082e+03
  8.799331e+00    2.798878e+03
  8.852449e+00    2.794686e+03
  8.905568e+00    2.808811e+03
  8.958686e+00    2.814654e+03
  9.011804e+00    2.813623e+03
  9.064922e+00    2.753656e+03
  9.118040e+00    2.693863e+03
  9.171158e+00    2.673958e+03
  9.224276e+00    2.657530e+03
  9.277395e+00    2.622341e+03
  9.330513e+00    2.601002e+03
  9.383631e+00    2.585957e+03
  9.436749e+00    2.571446e+03
  9.489867e+00    2.577506e+03
  9.542985e+00    2.570479e+03
  9.596104e+00    2.555519e+03
  9.649222e+00    2.552785e+03
  9.702340e+00    2.551732e+03
  9.755458e+00    2.549188e+03
  9.808576e+00    2.542929e+03
  9.861694e+00    2.544509e+03
  9.914813e+00    2.548423e+03
  9.967931e+00    2.529352e+03
  1.002105e+01    2.487740e+03
  1.007417e+01    2.446390e+03
  1.012729e+01    2.423323e+03
  1.018040e+01    2.420816e+03
  1.023352e+01    2.404774e+03
  1.028664e+01    2.373482e+03
  1.033976e+01    2.353152e+03
  1.039288e+01    2.368646e+03
  1.044599e+01    2.355950e+03
  1.049911e+01    2.354690e+03
  1.055223e+01    2.336222e+03
  1.060535e+01    2.335268e+03
  1.065847e+01    2.328281e+03
  1.071158e+01    2.321957e+03
  1.076470e+01    2.311771e+03
  1.081782e+01    2.310575e+03
  1.087094e+01    2.298854e+03
  1.092406e+01    2.303245e+03
  1.097718e+01    2.307338e+03
  1.103029e+01    2.307816e+03
  1.108341e+01    2.305288e+03
  1.113653e+01    2.293224e+03
  1.118965e+01    2.276276e+03
  1.124277e+01    2.262445e+03
  1.129588e+01    2.258177e+03
  1.134900e+01    2.245426e+03
  1.140212e+01    2.245973e+03
  1.145524e+01    2.239649e+03
  1.150836e+01    2.248816e+03
  1.156148e+01    2.244971e+03
  1.161459e+01    2.250509e+03
  1.166771e+01    2.245122e+03
  1.172083e+01    2.254717e+03
  1.177395e+01    2.237072e+03
  1.182707e+01    2.225975e+03
  1.188018e+01    2.224463e+03
  1.193330e+01    2.207478e+03
  1.198642e+01    2.188624e+03
  1.203954e+01    2.169882e+03
  1.209266e+01    2.159376e+03
  1.214578e+01    2.149201e+03
  1.219889e+01    2.150947e+03
  1.225201e+01    2.151016e+03
  1.230513e+01    2.146809e+03
  1.235825e+01    2.149335e+03
  1.241137e+01    2.134257e+03
  1.246448e+01    2.133112e+03
  1.251760e+01    2.127377e+03
  1.257072e+01    2.121679e+03
  1.262384e+01    2.126528e+03
  1.267696e+01    2.112533e+03
  1.273008e+01    2.098694e+03
  1.278319e+01    2.089828e+03
  1.283631e+01    2.079688e+03
  1.288943e+01    2.075673e+03
  1.294255e+01    2.063705e+03
  1.299567e+01    2.058314e+03
  1.304878e+01    2.050919e+03
  1.310190e+01    2.049186e+03
  1.315502e+01    2.045268e+03
  1.320814e+01    2.023153e+03
  1.326126e+01    1.999821e+03
  1.331437e+01    1.990938e+03
  1.336749e+01    1.981774e+03
  1.342061e+01    1.972713e+03
  1.347373e+01    1.998401e+03
  1.352685e+01    2.000398e+03
  1.357997e+01    1.986733e+03
  1.363308e+01    1.975085e+03
  1.368620e+01    1.965552e+03
  1.373932e+01    1.954461e+03
  1.379244e+01    1.950143e+03
  1.384556e+01    1.945432e+03
  1.389867e+01    1.935123e+03
  1.395179e+01    1.927982e+03
  1.400491e+01    1.924789e+03
  1.405803e+01    1.921944e+03
  1.411115e+01    1.913850e+03
  1.416427e+01    1.905052e+03
  1.421738e+01    1.902909e+03
  1.427050e+01    1.893132e+03
  1.432362e+01    1.893788e+03
  1.437674e+01    1.891309e+03
  1.442986e+01    1.877938e+03
  1.448297e+01    1.871038e+03
  1.453609e+01    1.863975e+03
  1.458921e+01    1.854927e+03
  1.464233e+01    1.849795e+03
  1.469545e+01    1.843657e+03
  1.474857e+01    1.824791e+03
  1.480168e+01    1.835256e+03
  1.485480e+01    1.832141e+03
  1.490792e+01    1.827593e+03
  1.496104e+01    1.819772e+03
  1.501416e+01    1.817094e+03
  1.506727e+01    1.811986e+03
  1.512039e+01    1.809759e+03
  1.517351e+01    1.822357e+03
  1.522663e+01    1.835650e+03
  1.527975e+01    1.833295e+03
  1.533286e+01    1.817536e+03
  1.538598e+01    1.809351e+03
  1.543910e+01    1.801177e+03
  1.549222e+01    1.796655e+03
  1.554534e+01    1.796667e+03
  1.559846e+01    1.795826e+03
  1.565157e+01    1.787326e+03
  1.570469e+01    1.781458e+03
  1.575781e+01    1.778745e+03
  1.581093e+01    1.775762e+03
  1.586405e+01    1.773504e+03
  1.591716e+01    1.766515e+03
  1.597028e+01    1.760795e+03
  1.602340e+01    1.745988e+03
  1.607652e+01    1.736080e+03
  1.612964e+01    1.711710e+03
  1.618276e+01    1.701240e+03
  1.623587e+01    1.700963e+03
  1.628899e+01    1.714940e+03
  1.634211e+01    1.714305e+03
  1.639523e+01    1.708433e+03
  1.644835e+01    1.711134e+03
  1.650146e+01    1.703985e+03
  1.655458e+01    1.702900e+03
  1.660770e+01    1.699292e+03
  1.666082e+01    1.694341e+03
  1.671394e+01    1.695631e+03
  1.676706e+01    1.690187e+03
  1.682017e+01    1.703072e+03
  1.687329e+01    1.691264e+03
  1.692641e+01    1.685652e+03
  1.697953e+01    1.681011e+03
  1.703265e+01    1.676664e+03
  1.708576e+01    1.675864e+03
  1.713888e+01    1.668430e+03
  1.719200e+01    1.666091e+03
  1.724512e+01    1.658521e+03
  1.729824e+01    1.658540e+03
  1.735136e+01    1.654136e+03
  1.740447e+01    1.630319e+03
  1.745759e+01    1.637157e+03
  1.751071e+01    1.640560e+03
  1.756383e+01    1.650283e+03
  1.761695e+01    1.633732e+03
  1.767006e+01    1.632656e+03
  1.772318e+01    1.621252e+03
  1.777630e+01    1.621487e+03
  1.782942e+01    1.613392e+03
  1.788254e+01    1.609277e+03
  1.793565e+01    1.606807e+03
  1.798877e+01    1.604770e+03
  1.804189e+01    1.598466e+03
  1.809501e+01    1.593383e+03
  1.814813e+01    1.590665e+03
  1.820125e+01    1.585650e+03
  1.825436e+01    1.589545e+03
  1.830748e+01    1.583164e+03
  1.836060e+01    1.578663e+03
  1.841372e+01    1.576229e+03
  1.846684e+01    1.570765e+03
  1.851995e+01    1.551241e+03
  1.857307e+01    1.536871e+03
  1.862619e+01    1.526712e+03
  1.867931e+01    1.524218e+03
  1.873243e+01    1.541290e+03
  1.878555e+01    1.545639e+03
  1.883866e+01    1.544865e+03
  1.889178e+01    1.543309e+03
  1.894490e+01    1.555590e+03
  1.899802e+01    1.545618e+03
  1.905114e+01    1.540949e+03
  1.910425e+01    1.533955e+03
  1.915737e+01    1.532041e+03
  1.921049e+01    1.527471e+03
  1.926361e+01    1.523500e+03
  1.931673e+01    1.520311e+03
  1.936985e+01    1.519840e+03
  1.942296e+01    1.516367e+03
  1.947608e+01    1.516705e+03
  1.952920e+01    1.512747e+03
  1.958232e+01    1.513281e+03
  1.963544e+01    1.518672e+03
  1.968855e+01    1.505034e+03
  1.974167e+01    1.492317e+03
  1.979479e+01    1.497870e+03
  1.984791e+01    1.496022e+03
  1.990103e+01    1.493199e+03
  1.995414e+01    1.491942e+03
  2.000726e+01    1.489697e+03
  2.006038e+01    1.484944e+03
  2.011350e+01    1.481778e+03
  2.016662e+01    1.474814e+03
  2.021974e+01    1.478323e+03
  2.027285e+01    1.485305e+03
  2.032597e+01    1.470146e+03
  2.037909e+01    1.465463e+03
  2.043221e+01    1.460572e+03
  2.048533e+01    1.458345e+03
  2.053844e+01    1.457556e+03
  2.059156e+01    1.452539e+03
  2.064468e+01    1.449603e+03
  2.069780e+01    1.430573e+03
  2.075092e+01    1.405450e+03
  2.080404e+01    1.391395e+03
  2.085715e+01    1.410121e+03
  2.091027e+01    1.437124e+03
  2.096339e+01    1.444202e+03
  2.101651e+01    1.449463e+03
  2.106963e+01    1.452407e+03
  2.112274e+01    1.456596e+03
  2.117586e+01    1.457352e+03
  2.122898e+01    1.460419e+03
  2.128210e+01    1.457256e+03
  2.133522e+01    1.457406e+03
  2.138834e+01    1.455543e+03
  2.144145e+01    1.456334e+03
  2.149457e+01    1.456149e+03
  2.154769e+01    1.455793e+03
  2.160081e+01    1.453651e+03
  2.165393e+01    1.455812e+03
  2.170704e+01    1.454241e+03
  2.176016e+01    1.444316e+03
  2.181328e+01    1.454003e+03
  2.186640e+01    1.454272e+03
  2.191952e+01    1.452932e+03
  2.197263e+01    1.450130e+03
  2.202575e+01    1.448137e+03
  2.207887e+01    1.447716e+03
  2.213199e+01    1.446237e+03
  2.218511e+01    1.444778e+03
  2.223823e+01    1.444338e+03
  2.229134e+01    1.442893e+03
  2.234446e+01    1.441664e+03
  2.239758e+01    1.442135e+03
  2.245070e+01    1.439864e+03
  2.250382e+01    1.440447e+03
  2.255693e+01    1.436723e+03
  2.261005e+01    1.418215e+03
  2.266317e+01    1.407325e+03
  2.271629e+01    1.398344e+03
  2.276941e+01    1.388006e+03
  2.282253e+01    1.382480e+03
  2.287564e+01    1.377885e+03
  2.292876e+01    1.374240e+03
  2.298188e+01    1.368700e+03
  2.303500e+01    1.368840e+03
  2.308812e+01    1.365787e+03
  2.314123e+01    1.364114e+03
  2.319435e+01    1.358185e+03
  2.324747e+01    1.352134e+03
  2.330059e+01    1.347037e+03
  2.335371e+01    1.345653e+03
  2.340683e+01    1.341907e+03
  2.345994e+01    1.337633e+03
  2.351306e+01    1.334212e+03
  2.356618e+01    1.330980e+03
  2.361930e+01    1.324068e+03
  2.367242e+01    1.321018e+03
  2.372553e+01    1.314434e+03
  2.377865e+01    1.310945e+03
  2.383177e+01    1.303615e+03
  2.388489e+01    1.298561e+03
  2.393801e+01    1.296046e+03
  2.399113e+01    1.294407e+03
  2.404424e+01    1.292228e+03
  2.409736e+01    1.292224e+03
  2.415048e+01    1.286395e+03
  2.420360e+01    1.284160e+03
  2.425672e+01    1.278966e+03
  2.430983e+01    1.278570e+03
  2.436295e+01    1.276385e+03
  2.441607e+01    1.276270e+03
  2.446919e+01    1.272604e+03
  2.452231e+01    1.270657e+03
  2.457542e+01    1.268578e+03
  2.462854e+01    1.266474e+03
  2.468166e+01    1.265489e+03
  2.473478e+01    1.259721e+03
  2.478790e+01    1.253962e+03
  2.484102e+01    1.252466e+03
  2.489413e+01    1.245496e+03
  2.494725e+01    1.241678e+03
  2.500037e+01    1.238731e+03
  2.505349e+01    1.232104e+03
  2.510661e+01    1.225254e+03
  2.515972e+01    1.224523e+03
  2.521284e+01    1.222369e+03
  2.526596e+01    1.221426e+03
  2.531908e+01    1.215014e+03
  2.537220e+01    1.215998e+03
  2.542532e+01    1.211618e+03
  2.547843e+01    1.209586e+03
  2.553155e+01    1.208053e+03
  2.558467e+01    1.196410e+03
  2.563779e+01    1.195140e+03
  2.569091e+01    1.187936e+03
  2.574402e+01    1.178277e+03
  2.579714e+01    1.173749e+03
  2.585026e+01    1.163427e+03
  2.590338e+01    1.156188e+03
  2.595650e+01    1.158495e+03
  2.600962e+01    1.150207e+03
  2.606273e+01    1.154224e+03
  2.611585e+01    1.152099e+03
  2.616897e+01    1.154595e+03
  2.622209e+01    1.154693e+03
  2.627521e+01    1.142859e+03
  2.632832e+01    1.138958e+03
  2.638144e+01    1.139274e+03
  2.643456e+01    1.135069e+03
  2.648768e+01    1.112625e+03
  2.654080e+01    1.102202e+03
