# == pyFAI calibration ==
# Distance Sample to Detector: 0.2946421923531691 m
# PONI: 2.875e-01, 2.439e-01 m
# Rotations: -0.010990 -0.009181 0.000003 rad
# 
# == Fit2d calibration ==
# Distance Sample-beamCenter: 294.672 mm
# Center: x=1436.809, y=1655.851 pix
# Tilt: 0.820 deg  TiltPlanRot: -39.874 deg
# 
# Detector Pilatus 2M	 PixelSize= 1.720e-04, 1.720e-04 m
#    Detector has a mask: True 
#    Detector has a dark current: False 
#    detector has a flat field: False 
# 
# Wavelength: 2.0732883349524408e-11 m
# Mask applied: from detector
# Dark current applied: False
# Flat field applied: False
# Polarization factor: None
# Normalization factor: 1.0
# --> /gpfs/current/raw/FMue_3/FMue_3_20231024_175355_00228.dat
#        q_A^-1             I 
  3.483473e-02             nan
  8.795289e-02             nan
  1.410711e-01             nan
  1.941892e-01             nan
  2.473074e-01             nan
  3.004255e-01             nan
  3.535437e-01             nan
  4.066619e-01    1.112248e+04
  4.597800e-01    1.024695e+04
  5.128982e-01    8.750446e+03
  5.660163e-01    8.021047e+03
  6.191345e-01    7.756833e+03
  6.722527e-01    7.691803e+03
  7.253708e-01    7.750980e+03
  7.784890e-01    7.821215e+03
  8.316071e-01    7.974287e+03
  8.847253e-01    8.103953e+03
  9.378435e-01    8.290631e+03
  9.909616e-01    8.506420e+03
  1.044080e+00    8.833398e+03
  1.097198e+00    9.259710e+03
  1.150316e+00    9.866861e+03
  1.203434e+00    1.057449e+04
  1.256552e+00    1.145706e+04
  1.309671e+00    1.263595e+04
  1.362789e+00    1.371674e+04
  1.415907e+00    1.414525e+04
  1.469025e+00    1.425081e+04
  1.522143e+00    1.413865e+04
  1.575261e+00    1.356552e+04
  1.628380e+00    1.283112e+04
  1.681498e+00    1.189952e+04
  1.734616e+00    1.095141e+04
  1.787734e+00    1.012218e+04
  1.840852e+00    9.416786e+03
  1.893970e+00    8.821565e+03
  1.947089e+00    8.410846e+03
  2.000207e+00    8.099212e+03
  2.053325e+00    7.985380e+03
  2.106443e+00    8.474718e+03
  2.159561e+00    9.666871e+03
  2.212679e+00    9.939094e+03
  2.265797e+00    9.290535e+03
  2.318916e+00    8.495630e+03
  2.372034e+00    7.789392e+03
  2.425152e+00    7.991792e+03
  2.478270e+00    9.456972e+03
  2.531388e+00    1.312414e+04
  2.584506e+00    1.426267e+04
  2.637625e+00    1.065122e+04
  2.690743e+00    8.396374e+03
  2.743861e+00    7.584066e+03
  2.796979e+00    6.355738e+03
  2.850097e+00    5.469266e+03
  2.903215e+00    5.171988e+03
  2.956334e+00    5.101967e+03
  3.009452e+00    5.435374e+03
  3.062570e+00    6.967961e+03
  3.115688e+00    9.240418e+03
  3.168806e+00    8.932276e+03
  3.221924e+00    7.203285e+03
  3.275043e+00    5.686108e+03
  3.328161e+00    4.848800e+03
  3.381279e+00    4.624806e+03
  3.434397e+00    4.634733e+03
  3.487515e+00    4.718216e+03
  3.540633e+00    4.638224e+03
  3.593751e+00    4.560925e+03
  3.646870e+00    4.617541e+03
  3.699988e+00    4.793976e+03
  3.753106e+00    5.136625e+03
  3.806224e+00    5.384342e+03
  3.859342e+00    5.353121e+03
  3.912460e+00    5.583046e+03
  3.965579e+00    6.494917e+03
  4.018697e+00    7.559531e+03
  4.071815e+00    7.460686e+03
  4.124933e+00    6.741787e+03
  4.178051e+00    6.307977e+03
  4.231169e+00    6.150101e+03
  4.284288e+00    6.535609e+03
  4.337406e+00    8.285647e+03
  4.390524e+00    1.057757e+04
  4.443642e+00    1.195655e+04
  4.496760e+00    1.210076e+04
  4.549878e+00    8.451814e+03
  4.602997e+00    5.862029e+03
  4.656115e+00    5.237058e+03
  4.709233e+00    5.038254e+03
  4.762351e+00    4.992400e+03
  4.815469e+00    5.055396e+03
  4.868587e+00    5.217631e+03
  4.921705e+00    5.274891e+03
  4.974824e+00    5.331613e+03
  5.027942e+00    5.498754e+03
  5.081060e+00    5.723365e+03
  5.134178e+00    5.497047e+03
  5.187296e+00    5.024750e+03
  5.240414e+00    4.642149e+03
  5.293533e+00    4.443269e+03
  5.346651e+00    4.365812e+03
  5.399769e+00    4.276840e+03
  5.452887e+00    4.238433e+03
  5.506005e+00    4.116760e+03
  5.559123e+00    3.768507e+03
  5.612242e+00    3.589211e+03
  5.665360e+00    3.552424e+03
  5.718478e+00    3.549247e+03
  5.771596e+00    3.617650e+03
  5.824714e+00    3.704186e+03
  5.877832e+00    3.878808e+03
  5.930951e+00    4.181745e+03
  5.984069e+00    4.190605e+03
  6.037187e+00    3.939441e+03
  6.090305e+00    3.762258e+03
  6.143423e+00    3.742638e+03
  6.196541e+00    3.897498e+03
  6.249660e+00    4.006478e+03
  6.302778e+00    3.865936e+03
  6.355896e+00    3.606005e+03
  6.409014e+00    3.509920e+03
  6.462132e+00    3.447533e+03
  6.515250e+00    3.408851e+03
  6.568368e+00    3.438134e+03
  6.621487e+00    3.511346e+03
  6.674605e+00    3.647135e+03
  6.727723e+00    3.701483e+03
  6.780841e+00    3.516223e+03
  6.833959e+00    3.314696e+03
  6.887077e+00    3.230191e+03
  6.940196e+00    3.203404e+03
  6.993314e+00    3.227013e+03
  7.046432e+00    3.225629e+03
  7.099550e+00    3.159532e+03
  7.152668e+00    3.097483e+03
  7.205786e+00    3.052185e+03
  7.258905e+00    3.045231e+03
  7.312023e+00    3.115734e+03
  7.365141e+00    3.225567e+03
  7.418259e+00    3.265645e+03
  7.471377e+00    3.250776e+03
  7.524495e+00    3.332661e+03
  7.577614e+00    3.491135e+03
  7.630732e+00    3.504941e+03
  7.683850e+00    3.511758e+03
  7.736968e+00    3.582527e+03
  7.790086e+00    3.488805e+03
  7.843204e+00    3.324044e+03
  7.896322e+00    3.204409e+03
  7.949441e+00    3.178100e+03
  8.002559e+00    3.193975e+03
  8.055677e+00    3.145554e+03
  8.108795e+00    3.059404e+03
  8.161913e+00    3.008646e+03
  8.215031e+00    2.961879e+03
  8.268150e+00    2.919795e+03
  8.321268e+00    2.885829e+03
  8.374386e+00    2.863771e+03
  8.427504e+00    2.846026e+03
  8.480622e+00    2.837766e+03
  8.533740e+00    2.801760e+03
  8.586859e+00    2.832708e+03
  8.639977e+00    2.818372e+03
  8.693095e+00    2.807556e+03
  8.746213e+00    2.819253e+03
  8.799331e+00    2.805477e+03
  8.852449e+00    2.777171e+03
  8.905568e+00    2.777561e+03
  8.958686e+00    2.778799e+03
  9.011804e+00    2.776705e+03
  9.064922e+00    2.737127e+03
  9.118040e+00    2.713200e+03
  9.171158e+00    2.686732e+03
  9.224276e+00    2.638342e+03
  9.277395e+00    2.589714e+03
  9.330513e+00    2.558880e+03
  9.383631e+00    2.533582e+03
  9.436749e+00    2.523621e+03
  9.489867e+00    2.539234e+03
  9.542985e+00    2.551892e+03
  9.596104e+00    2.554676e+03
  9.649222e+00    2.564859e+03
  9.702340e+00    2.550982e+03
  9.755458e+00    2.536746e+03
  9.808576e+00    2.530789e+03
  9.861694e+00    2.526152e+03
  9.914813e+00    2.510351e+03
  9.967931e+00    2.487626e+03
  1.002105e+01    2.464451e+03
  1.007417e+01    2.446388e+03
  1.012729e+01    2.432076e+03
  1.018040e+01    2.408975e+03
  1.023352e+01    2.367836e+03
  1.028664e+01    2.332935e+03
  1.033976e+01    2.318286e+03
  1.039288e+01    2.336270e+03
  1.044599e+01    2.327588e+03
  1.049911e+01    2.332104e+03
  1.055223e+01    2.325246e+03
  1.060535e+01    2.326554e+03
  1.065847e+01    2.312460e+03
  1.071158e+01    2.301620e+03
  1.076470e+01    2.291049e+03
  1.081782e+01    2.289176e+03
  1.087094e+01    2.280104e+03
  1.092406e+01    2.294990e+03
  1.097718e+01    2.302160e+03
  1.103029e+01    2.303230e+03
  1.108341e+01    2.290105e+03
  1.113653e+01    2.267346e+03
  1.118965e+01    2.246191e+03
  1.124277e+01    2.232153e+03
  1.129588e+01    2.229723e+03
  1.134900e+01    2.225553e+03
  1.140212e+01    2.234542e+03
  1.145524e+01    2.237910e+03
  1.150836e+01    2.245885e+03
  1.156148e+01    2.242844e+03
  1.161459e+01    2.244627e+03
  1.166771e+01    2.222239e+03
  1.172083e+01    2.220849e+03
  1.177395e+01    2.203424e+03
  1.182707e+01    2.197243e+03
  1.188018e+01    2.198518e+03
  1.193330e+01    2.183080e+03
  1.198642e+01    2.162026e+03
  1.203954e+01    2.143042e+03
  1.209266e+01    2.139618e+03
  1.214578e+01    2.133525e+03
  1.219889e+01    2.142693e+03
  1.225201e+01    2.145637e+03
  1.230513e+01    2.136581e+03
  1.235825e+01    2.132892e+03
  1.241137e+01    2.115727e+03
  1.246448e+01    2.113224e+03
  1.251760e+01    2.108875e+03
  1.257072e+01    2.105955e+03
  1.262384e+01    2.113524e+03
  1.267696e+01    2.098879e+03
  1.273008e+01    2.082607e+03
  1.278319e+01    2.072882e+03
  1.283631e+01    2.059569e+03
  1.288943e+01    2.052751e+03
  1.294255e+01    2.044520e+03
  1.299567e+01    2.040718e+03
  1.304878e+01    2.035472e+03
  1.310190e+01    2.034014e+03
  1.315502e+01    2.028638e+03
  1.320814e+01    2.006255e+03
  1.326126e+01    1.981767e+03
  1.331437e+01    1.978112e+03
  1.336749e+01    1.971098e+03
  1.342061e+01    1.959482e+03
  1.347373e+01    1.977445e+03
  1.352685e+01    1.976011e+03
  1.357997e+01    1.961408e+03
  1.363308e+01    1.951989e+03
  1.368620e+01    1.946808e+03
  1.373932e+01    1.940642e+03
  1.379244e+01    1.933300e+03
  1.384556e+01    1.926337e+03
  1.389867e+01    1.916304e+03
  1.395179e+01    1.908465e+03
  1.400491e+01    1.907869e+03
  1.405803e+01    1.904585e+03
  1.411115e+01    1.895712e+03
  1.416427e+01    1.885492e+03
  1.421738e+01    1.879767e+03
  1.427050e+01    1.871495e+03
  1.432362e+01    1.873533e+03
  1.437674e+01    1.872439e+03
  1.442986e+01    1.861906e+03
  1.448297e+01    1.854101e+03
  1.453609e+01    1.846401e+03
  1.458921e+01    1.837676e+03
  1.464233e+01    1.833443e+03
  1.469545e+01    1.829889e+03
  1.474857e+01    1.806936e+03
  1.480168e+01    1.818062e+03
  1.485480e+01    1.813688e+03
  1.490792e+01    1.807837e+03
  1.496104e+01    1.802142e+03
  1.501416e+01    1.800062e+03
  1.506727e+01    1.797238e+03
  1.512039e+01    1.793934e+03
  1.517351e+01    1.806562e+03
  1.522663e+01    1.820321e+03
  1.527975e+01    1.817106e+03
  1.533286e+01    1.802349e+03
  1.538598e+01    1.792981e+03
  1.543910e+01    1.783366e+03
  1.549222e+01    1.780081e+03
  1.554534e+01    1.778525e+03
  1.559846e+01    1.775880e+03
  1.565157e+01    1.770271e+03
  1.570469e+01    1.764012e+03
  1.575781e+01    1.762397e+03
  1.581093e+01    1.756411e+03
  1.586405e+01    1.755746e+03
  1.591716e+01    1.749147e+03
  1.597028e+01    1.742655e+03
  1.602340e+01    1.728143e+03
  1.607652e+01    1.715375e+03
  1.612964e+01    1.693563e+03
  1.618276e+01    1.681399e+03
  1.623587e+01    1.683745e+03
  1.628899e+01    1.699790e+03
  1.634211e+01    1.696917e+03
  1.639523e+01    1.691354e+03
  1.644835e+01    1.694127e+03
  1.650146e+01    1.688779e+03
  1.655458e+01    1.686257e+03
  1.660770e+01    1.682095e+03
  1.666082e+01    1.676463e+03
  1.671394e+01    1.675810e+03
  1.676706e+01    1.670438e+03
  1.682017e+01    1.682840e+03
  1.687329e+01    1.673788e+03
  1.692641e+01    1.666775e+03
  1.697953e+01    1.662242e+03
  1.703265e+01    1.658503e+03
  1.708576e+01    1.657517e+03
  1.713888e+01    1.649905e+03
  1.719200e+01    1.646676e+03
  1.724512e+01    1.639847e+03
  1.729824e+01    1.639214e+03
  1.735136e+01    1.632506e+03
  1.740447e+01    1.611922e+03
  1.745759e+01    1.618722e+03
  1.751071e+01    1.619922e+03
  1.756383e+01    1.631852e+03
  1.761695e+01    1.615483e+03
  1.767006e+01    1.614490e+03
  1.772318e+01    1.604555e+03
  1.777630e+01    1.603735e+03
  1.782942e+01    1.594942e+03
  1.788254e+01    1.590755e+03
  1.793565e+01    1.588364e+03
  1.798877e+01    1.585237e+03
  1.804189e+01    1.579835e+03
  1.809501e+01    1.574217e+03
  1.814813e+01    1.572524e+03
  1.820125e+01    1.566647e+03
  1.825436e+01    1.572554e+03
  1.830748e+01    1.565551e+03
  1.836060e+01    1.562130e+03
  1.841372e+01    1.557982e+03
  1.846684e+01    1.552525e+03
  1.851995e+01    1.535833e+03
  1.857307e+01    1.520958e+03
  1.862619e+01    1.511666e+03
  1.867931e+01    1.508683e+03
  1.873243e+01    1.526927e+03
  1.878555e+01    1.529142e+03
  1.883866e+01    1.528804e+03
  1.889178e+01    1.527167e+03
  1.894490e+01    1.539023e+03
  1.899802e+01    1.529336e+03
  1.905114e+01    1.525181e+03
  1.910425e+01    1.520108e+03
  1.915737e+01    1.515979e+03
  1.921049e+01    1.511695e+03
  1.926361e+01    1.508653e+03
  1.931673e+01    1.504325e+03
  1.936985e+01    1.501782e+03
  1.942296e+01    1.499278e+03
  1.947608e+01    1.499678e+03
  1.952920e+01    1.495634e+03
  1.958232e+01    1.496127e+03
  1.963544e+01    1.500835e+03
  1.968855e+01    1.486882e+03
  1.974167e+01    1.476378e+03
  1.979479e+01    1.481368e+03
  1.984791e+01    1.479386e+03
  1.990103e+01    1.476594e+03
  1.995414e+01    1.475042e+03
  2.000726e+01    1.471978e+03
  2.006038e+01    1.467304e+03
  2.011350e+01    1.463575e+03
  2.016662e+01    1.458550e+03
  2.021974e+01    1.461414e+03
  2.027285e+01    1.466629e+03
  2.032597e+01    1.452036e+03
  2.037909e+01    1.446470e+03
  2.043221e+01    1.442867e+03
  2.048533e+01    1.440706e+03
  2.053844e+01    1.439166e+03
  2.059156e+01    1.435435e+03
  2.064468e+01    1.430766e+03
  2.069780e+01    1.413084e+03
  2.075092e+01    1.388942e+03
  2.080404e+01    1.373645e+03
  2.085715e+01    1.392940e+03
  2.091027e+01    1.419252e+03
  2.096339e+01    1.426549e+03
  2.101651e+01    1.431819e+03
  2.106963e+01    1.435101e+03
  2.112274e+01    1.439328e+03
  2.117586e+01    1.440521e+03
  2.122898e+01    1.443807e+03
  2.128210e+01    1.439825e+03
  2.133522e+01    1.441233e+03
  2.138834e+01    1.438335e+03
  2.144145e+01    1.438496e+03
  2.149457e+01    1.438279e+03
  2.154769e+01    1.437993e+03
  2.160081e+01    1.437124e+03
  2.165393e+01    1.438795e+03
  2.170704e+01    1.439352e+03
  2.176016e+01    1.428294e+03
  2.181328e+01    1.438030e+03
  2.186640e+01    1.437937e+03
  2.191952e+01    1.436110e+03
  2.197263e+01    1.434711e+03
  2.202575e+01    1.431748e+03
  2.207887e+01    1.430998e+03
  2.213199e+01    1.429910e+03
  2.218511e+01    1.429187e+03
  2.223823e+01    1.428387e+03
  2.229134e+01    1.426659e+03
  2.234446e+01    1.425336e+03
  2.239758e+01    1.425293e+03
  2.245070e+01    1.422398e+03
  2.250382e+01    1.422809e+03
  2.255693e+01    1.421122e+03
  2.261005e+01    1.403597e+03
  2.266317e+01    1.391518e+03
  2.271629e+01    1.382801e+03
  2.276941e+01    1.371299e+03
  2.282253e+01    1.365141e+03
  2.287564e+01    1.362059e+03
  2.292876e+01    1.356411e+03
  2.298188e+01    1.354191e+03
  2.303500e+01    1.352424e+03
  2.308812e+01    1.349999e+03
  2.314123e+01    1.347706e+03
  2.319435e+01    1.341865e+03
  2.324747e+01    1.335361e+03
  2.330059e+01    1.331481e+03
  2.335371e+01    1.328710e+03
  2.340683e+01    1.324100e+03
  2.345994e+01    1.322039e+03
  2.351306e+01    1.318252e+03
  2.356618e+01    1.314228e+03
  2.361930e+01    1.308880e+03
  2.367242e+01    1.304327e+03
  2.372553e+01    1.297753e+03
  2.377865e+01    1.293677e+03
  2.383177e+01    1.289605e+03
  2.388489e+01    1.284185e+03
  2.393801e+01    1.279394e+03
  2.399113e+01    1.278435e+03
  2.404424e+01    1.279408e+03
  2.409736e+01    1.275651e+03
  2.415048e+01    1.273826e+03
  2.420360e+01    1.270451e+03
  2.425672e+01    1.266652e+03
  2.430983e+01    1.262416e+03
  2.436295e+01    1.261044e+03
  2.441607e+01    1.259614e+03
  2.446919e+01    1.257046e+03
  2.452231e+01    1.256096e+03
  2.457542e+01    1.253613e+03
  2.462854e+01    1.250215e+03
  2.468166e+01    1.249487e+03
  2.473478e+01    1.244005e+03
  2.478790e+01    1.238066e+03
  2.484102e+01    1.235342e+03
  2.489413e+01    1.229964e+03
  2.494725e+01    1.226297e+03
  2.500037e+01    1.223609e+03
  2.505349e+01    1.217746e+03
  2.510661e+01    1.210912e+03
  2.515972e+01    1.210994e+03
  2.521284e+01    1.209439e+03
  2.526596e+01    1.209216e+03
  2.531908e+01    1.203320e+03
  2.537220e+01    1.204179e+03
  2.542532e+01    1.198772e+03
  2.547843e+01    1.199580e+03
  2.553155e+01    1.192750e+03
  2.558467e+01    1.187418e+03
  2.563779e+01    1.177785e+03
  2.569091e+01    1.175028e+03
  2.574402e+01    1.164867e+03
  2.579714e+01    1.159181e+03
  2.585026e+01    1.153150e+03
  2.590338e+01    1.144967e+03
  2.595650e+01    1.141413e+03
  2.600962e+01    1.138291e+03
  2.606273e+01    1.143339e+03
  2.611585e+01    1.141721e+03
  2.616897e+01    1.138629e+03
  2.622209e+01    1.140110e+03
  2.627521e+01    1.132948e+03
  2.632832e+01    1.122086e+03
  2.638144e+01    1.121885e+03
  2.643456e+01    1.122819e+03
  2.648768e+01    1.100547e+03
  2.654080e+01    1.090323e+03
