# == pyFAI calibration ==
# Distance Sample to Detector: 0.2946421923531691 m
# PONI: 2.875e-01, 2.439e-01 m
# Rotations: -0.010990 -0.009181 0.000003 rad
# 
# == Fit2d calibration ==
# Distance Sample-beamCenter: 294.672 mm
# Center: x=1436.809, y=1655.851 pix
# Tilt: 0.820 deg  TiltPlanRot: -39.874 deg
# 
# Detector Pilatus 2M	 PixelSize= 1.720e-04, 1.720e-04 m
#    Detector has a mask: True 
#    Detector has a dark current: False 
#    detector has a flat field: False 
# 
# Wavelength: 2.0732883349524408e-11 m
# Mask applied: from detector
# Dark current applied: False
# Flat field applied: False
# Polarization factor: None
# Normalization factor: 1.0
# --> /gpfs/current/raw/FMue_3/FMue_3_20231024_175355_00109.dat
#        q_A^-1             I 
  3.483473e-02             nan
  8.795289e-02             nan
  1.410711e-01             nan
  1.941892e-01             nan
  2.473074e-01             nan
  3.004255e-01             nan
  3.535437e-01             nan
  4.066619e-01    1.328426e+04
  4.597800e-01    1.212908e+04
  5.128982e-01    1.025240e+04
  5.660163e-01    9.210146e+03
  6.191345e-01    8.749001e+03
  6.722527e-01    8.533936e+03
  7.253708e-01    8.511454e+03
  7.784890e-01    8.537142e+03
  8.316071e-01    8.690665e+03
  8.847253e-01    8.882792e+03
  9.378435e-01    9.314101e+03
  9.909616e-01    9.988940e+03
  1.044080e+00    1.009692e+04
  1.097198e+00    9.920352e+03
  1.150316e+00    1.031542e+04
  1.203434e+00    1.098825e+04
  1.256552e+00    1.186129e+04
  1.309671e+00    1.291734e+04
  1.362789e+00    1.396820e+04
  1.415907e+00    1.448897e+04
  1.469025e+00    1.458306e+04
  1.522143e+00    1.439860e+04
  1.575261e+00    1.378335e+04
  1.628380e+00    1.304425e+04
  1.681498e+00    1.208485e+04
  1.734616e+00    1.114804e+04
  1.787734e+00    1.031206e+04
  1.840852e+00    9.621091e+03
  1.893970e+00    9.136567e+03
  1.947089e+00    9.055976e+03
  2.000207e+00    8.783677e+03
  2.053325e+00    8.300596e+03
  2.106443e+00    8.383030e+03
  2.159561e+00    8.854198e+03
  2.212679e+00    9.118133e+03
  2.265797e+00    9.175985e+03
  2.318916e+00    8.728975e+03
  2.372034e+00    8.056247e+03
  2.425152e+00    8.279927e+03
  2.478270e+00    9.289842e+03
  2.531388e+00    1.113631e+04
  2.584506e+00    1.213375e+04
  2.637625e+00    1.094284e+04
  2.690743e+00    9.286412e+03
  2.743861e+00    8.123036e+03
  2.796979e+00    6.688302e+03
  2.850097e+00    5.703655e+03
  2.903215e+00    5.363895e+03
  2.956334e+00    5.302981e+03
  3.009452e+00    5.598509e+03
  3.062570e+00    6.775372e+03
  3.115688e+00    9.097040e+03
  3.168806e+00    9.380641e+03
  3.221924e+00    7.635972e+03
  3.275043e+00    6.085564e+03
  3.328161e+00    5.407650e+03
  3.381279e+00    5.428033e+03
  3.434397e+00    5.169520e+03
  3.487515e+00    4.941887e+03
  3.540633e+00    4.856380e+03
  3.593751e+00    4.718329e+03
  3.646870e+00    4.733335e+03
  3.699988e+00    4.875805e+03
  3.753106e+00    5.102274e+03
  3.806224e+00    5.265028e+03
  3.859342e+00    5.390204e+03
  3.912460e+00    5.635316e+03
  3.965579e+00    6.080538e+03
  4.018697e+00    6.672452e+03
  4.071815e+00    7.071965e+03
  4.124933e+00    6.925115e+03
  4.178051e+00    6.569121e+03
  4.231169e+00    6.393972e+03
  4.284288e+00    6.722227e+03
  4.337406e+00    7.870160e+03
  4.390524e+00    9.469972e+03
  4.443642e+00    1.175006e+04
  4.496760e+00    1.274367e+04
  4.549878e+00    9.097070e+03
  4.602997e+00    6.091345e+03
  4.656115e+00    5.373193e+03
  4.709233e+00    5.225811e+03
  4.762351e+00    5.307094e+03
  4.815469e+00    5.265555e+03
  4.868587e+00    5.189886e+03
  4.921705e+00    5.221996e+03
  4.974824e+00    5.318364e+03
  5.027942e+00    5.386877e+03
  5.081060e+00    5.479881e+03
  5.134178e+00    5.413437e+03
  5.187296e+00    5.176658e+03
  5.240414e+00    4.854594e+03
  5.293533e+00    4.628645e+03
  5.346651e+00    4.492619e+03
  5.399769e+00    4.395677e+03
  5.452887e+00    4.375723e+03
  5.506005e+00    4.334684e+03
  5.559123e+00    3.975121e+03
  5.612242e+00    3.723159e+03
  5.665360e+00    3.639996e+03
  5.718478e+00    3.568459e+03
  5.771596e+00    3.548853e+03
  5.824714e+00    3.614476e+03
  5.877832e+00    3.740645e+03
  5.930951e+00    3.909792e+03
  5.984069e+00    4.025498e+03
  6.037187e+00    4.003875e+03
  6.090305e+00    3.878478e+03
  6.143423e+00    3.770247e+03
  6.196541e+00    3.834819e+03
  6.249660e+00    4.009246e+03
  6.302778e+00    3.973648e+03
  6.355896e+00    3.701833e+03
  6.409014e+00    3.564798e+03
  6.462132e+00    3.495001e+03
  6.515250e+00    3.434776e+03
  6.568368e+00    3.447614e+03
  6.621487e+00    3.481268e+03
  6.674605e+00    3.530276e+03
  6.727723e+00    3.598835e+03
  6.780841e+00    3.574975e+03
  6.833959e+00    3.474779e+03
  6.887077e+00    3.364944e+03
  6.940196e+00    3.301496e+03
  6.993314e+00    3.330151e+03
  7.046432e+00    3.343868e+03
  7.099550e+00    3.254502e+03
  7.152668e+00    3.181267e+03
  7.205786e+00    3.128011e+03
  7.258905e+00    3.092087e+03
  7.312023e+00    3.119521e+03
  7.365141e+00    3.176389e+03
  7.418259e+00    3.229679e+03
  7.471377e+00    3.278168e+03
  7.524495e+00    3.337451e+03
  7.577614e+00    3.422298e+03
  7.630732e+00    3.492194e+03
  7.683850e+00    3.594535e+03
  7.736968e+00    3.717870e+03
  7.790086e+00    3.637404e+03
  7.843204e+00    3.415242e+03
  7.896322e+00    3.230760e+03
  7.949441e+00    3.145523e+03
  8.002559e+00    3.129865e+03
  8.055677e+00    3.129349e+03
  8.108795e+00    3.116011e+03
  8.161913e+00    3.086934e+03
  8.215031e+00    3.027323e+03
  8.268150e+00    2.962643e+03
  8.321268e+00    2.919916e+03
  8.374386e+00    2.895189e+03
  8.427504e+00    2.878148e+03
  8.480622e+00    2.854120e+03
  8.533740e+00    2.802436e+03
  8.586859e+00    2.832774e+03
  8.639977e+00    2.831462e+03
  8.693095e+00    2.824361e+03
  8.746213e+00    2.828035e+03
  8.799331e+00    2.816224e+03
  8.852449e+00    2.809254e+03
  8.905568e+00    2.822839e+03
  8.958686e+00    2.829332e+03
  9.011804e+00    2.825631e+03
  9.064922e+00    2.765837e+03
  9.118040e+00    2.710194e+03
  9.171158e+00    2.687788e+03
  9.224276e+00    2.669153e+03
  9.277395e+00    2.636015e+03
  9.330513e+00    2.612307e+03
  9.383631e+00    2.598467e+03
  9.436749e+00    2.584239e+03
  9.489867e+00    2.587275e+03
  9.542985e+00    2.582411e+03
  9.596104e+00    2.567638e+03
  9.649222e+00    2.566510e+03
  9.702340e+00    2.566761e+03
  9.755458e+00    2.560581e+03
  9.808576e+00    2.556035e+03
  9.861694e+00    2.560467e+03
  9.914813e+00    2.558127e+03
  9.967931e+00    2.541549e+03
  1.002105e+01    2.499908e+03
  1.007417e+01    2.456833e+03
  1.012729e+01    2.433958e+03
  1.018040e+01    2.433318e+03
  1.023352e+01    2.415021e+03
  1.028664e+01    2.383829e+03
  1.033976e+01    2.365213e+03
  1.039288e+01    2.379576e+03
  1.044599e+01    2.366309e+03
  1.049911e+01    2.363489e+03
  1.055223e+01    2.348041e+03
  1.060535e+01    2.345341e+03
  1.065847e+01    2.337924e+03
  1.071158e+01    2.332434e+03
  1.076470e+01    2.323027e+03
  1.081782e+01    2.323858e+03
  1.087094e+01    2.311054e+03
  1.092406e+01    2.315829e+03
  1.097718e+01    2.320832e+03
  1.103029e+01    2.317841e+03
  1.108341e+01    2.316465e+03
  1.113653e+01    2.303260e+03
  1.118965e+01    2.288391e+03
  1.124277e+01    2.275845e+03
  1.129588e+01    2.267003e+03
  1.134900e+01    2.255520e+03
  1.140212e+01    2.256469e+03
  1.145524e+01    2.253934e+03
  1.150836e+01    2.259792e+03
  1.156148e+01    2.257784e+03
  1.161459e+01    2.263267e+03
  1.166771e+01    2.256747e+03
  1.172083e+01    2.262707e+03
  1.177395e+01    2.246260e+03
  1.182707e+01    2.234528e+03
  1.188018e+01    2.233733e+03
  1.193330e+01    2.217588e+03
  1.198642e+01    2.197121e+03
  1.203954e+01    2.176666e+03
  1.209266e+01    2.167576e+03
  1.214578e+01    2.156870e+03
  1.219889e+01    2.161634e+03
  1.225201e+01    2.161351e+03
  1.230513e+01    2.155694e+03
  1.235825e+01    2.159259e+03
  1.241137e+01    2.146014e+03
  1.246448e+01    2.141824e+03
  1.251760e+01    2.136547e+03
  1.257072e+01    2.131649e+03
  1.262384e+01    2.136052e+03
  1.267696e+01    2.124261e+03
  1.273008e+01    2.108345e+03
  1.278319e+01    2.100739e+03
  1.283631e+01    2.091531e+03
  1.288943e+01    2.084395e+03
  1.294255e+01    2.071922e+03
  1.299567e+01    2.069555e+03
  1.304878e+01    2.060759e+03
  1.310190e+01    2.058950e+03
  1.315502e+01    2.054079e+03
  1.320814e+01    2.033749e+03
  1.326126e+01    2.008978e+03
  1.331437e+01    1.999079e+03
  1.336749e+01    1.992587e+03
  1.342061e+01    1.979063e+03
  1.347373e+01    2.007824e+03
  1.352685e+01    2.009507e+03
  1.357997e+01    1.995682e+03
  1.363308e+01    1.983812e+03
  1.368620e+01    1.975679e+03
  1.373932e+01    1.966772e+03
  1.379244e+01    1.959466e+03
  1.384556e+01    1.954014e+03
  1.389867e+01    1.946916e+03
  1.395179e+01    1.937129e+03
  1.400491e+01    1.934870e+03
  1.405803e+01    1.931126e+03
  1.411115e+01    1.924208e+03
  1.416427e+01    1.915126e+03
  1.421738e+01    1.910982e+03
  1.427050e+01    1.900965e+03
  1.432362e+01    1.902025e+03
  1.437674e+01    1.898376e+03
  1.442986e+01    1.885975e+03
  1.448297e+01    1.880306e+03
  1.453609e+01    1.873359e+03
  1.458921e+01    1.862177e+03
  1.464233e+01    1.859919e+03
  1.469545e+01    1.854014e+03
  1.474857e+01    1.833612e+03
  1.480168e+01    1.844381e+03
  1.485480e+01    1.840307e+03
  1.490792e+01    1.836140e+03
  1.496104e+01    1.829033e+03
  1.501416e+01    1.825759e+03
  1.506727e+01    1.820966e+03
  1.512039e+01    1.818913e+03
  1.517351e+01    1.830733e+03
  1.522663e+01    1.845518e+03
  1.527975e+01    1.842310e+03
  1.533286e+01    1.826855e+03
  1.538598e+01    1.816783e+03
  1.543910e+01    1.808708e+03
  1.549222e+01    1.805081e+03
  1.554534e+01    1.803784e+03
  1.559846e+01    1.804514e+03
  1.565157e+01    1.795320e+03
  1.570469e+01    1.789802e+03
  1.575781e+01    1.786767e+03
  1.581093e+01    1.783079e+03
  1.586405e+01    1.781892e+03
  1.591716e+01    1.775803e+03
  1.597028e+01    1.771145e+03
  1.602340e+01    1.755604e+03
  1.607652e+01    1.743658e+03
  1.612964e+01    1.721275e+03
  1.618276e+01    1.707223e+03
  1.623587e+01    1.709841e+03
  1.628899e+01    1.725488e+03
  1.634211e+01    1.723182e+03
  1.639523e+01    1.716732e+03
  1.644835e+01    1.718002e+03
  1.650146e+01    1.712187e+03
  1.655458e+01    1.710731e+03
  1.660770e+01    1.707367e+03
  1.666082e+01    1.702710e+03
  1.671394e+01    1.701795e+03
  1.676706e+01    1.698097e+03
  1.682017e+01    1.711540e+03
  1.687329e+01    1.700931e+03
  1.692641e+01    1.693931e+03
  1.697953e+01    1.689851e+03
  1.703265e+01    1.684880e+03
  1.708576e+01    1.683177e+03
  1.713888e+01    1.675101e+03
  1.719200e+01    1.674264e+03
  1.724512e+01    1.667591e+03
  1.729824e+01    1.667653e+03
  1.735136e+01    1.661297e+03
  1.740447e+01    1.638668e+03
  1.745759e+01    1.645546e+03
  1.751071e+01    1.647800e+03
  1.756383e+01    1.657454e+03
  1.761695e+01    1.641875e+03
  1.767006e+01    1.638982e+03
  1.772318e+01    1.630749e+03
  1.777630e+01    1.629488e+03
  1.782942e+01    1.619806e+03
  1.788254e+01    1.616290e+03
  1.793565e+01    1.613939e+03
  1.798877e+01    1.610902e+03
  1.804189e+01    1.605023e+03
  1.809501e+01    1.599848e+03
  1.814813e+01    1.597194e+03
  1.820125e+01    1.592135e+03
  1.825436e+01    1.597076e+03
  1.830748e+01    1.590017e+03
  1.836060e+01    1.586074e+03
  1.841372e+01    1.584042e+03
  1.846684e+01    1.577868e+03
  1.851995e+01    1.559058e+03
  1.857307e+01    1.544529e+03
  1.862619e+01    1.533252e+03
  1.867931e+01    1.531563e+03
  1.873243e+01    1.550006e+03
  1.878555e+01    1.552632e+03
  1.883866e+01    1.551772e+03
  1.889178e+01    1.551708e+03
  1.894490e+01    1.562784e+03
  1.899802e+01    1.552206e+03
  1.905114e+01    1.547935e+03
  1.910425e+01    1.543567e+03
  1.915737e+01    1.538966e+03
  1.921049e+01    1.534551e+03
  1.926361e+01    1.530277e+03
  1.931673e+01    1.528522e+03
  1.936985e+01    1.525727e+03
  1.942296e+01    1.522811e+03
  1.947608e+01    1.522875e+03
  1.952920e+01    1.519343e+03
  1.958232e+01    1.520504e+03
  1.963544e+01    1.524739e+03
  1.968855e+01    1.509321e+03
  1.974167e+01    1.500032e+03
  1.979479e+01    1.503647e+03
  1.984791e+01    1.502781e+03
  1.990103e+01    1.500863e+03
  1.995414e+01    1.499623e+03
  2.000726e+01    1.496050e+03
  2.006038e+01    1.492023e+03
  2.011350e+01    1.488537e+03
  2.016662e+01    1.482451e+03
  2.021974e+01    1.486366e+03
  2.027285e+01    1.491771e+03
  2.032597e+01    1.476788e+03
  2.037909e+01    1.471787e+03
  2.043221e+01    1.467692e+03
  2.048533e+01    1.464816e+03
  2.053844e+01    1.463847e+03
  2.059156e+01    1.458896e+03
  2.064468e+01    1.455424e+03
  2.069780e+01    1.436066e+03
  2.075092e+01    1.413475e+03
  2.080404e+01    1.398052e+03
  2.085715e+01    1.416311e+03
  2.091027e+01    1.444490e+03
  2.096339e+01    1.450565e+03
  2.101651e+01    1.454968e+03
  2.106963e+01    1.459426e+03
  2.112274e+01    1.462418e+03
  2.117586e+01    1.464463e+03
  2.122898e+01    1.466437e+03
  2.128210e+01    1.463965e+03
  2.133522e+01    1.464720e+03
  2.138834e+01    1.462862e+03
  2.144145e+01    1.462508e+03
  2.149457e+01    1.463227e+03
  2.154769e+01    1.461811e+03
  2.160081e+01    1.460255e+03
  2.165393e+01    1.461749e+03
  2.170704e+01    1.462805e+03
  2.176016e+01    1.451860e+03
  2.181328e+01    1.461006e+03
  2.186640e+01    1.461654e+03
  2.191952e+01    1.459341e+03
  2.197263e+01    1.457203e+03
  2.202575e+01    1.455562e+03
  2.207887e+01    1.457435e+03
  2.213199e+01    1.453416e+03
  2.218511e+01    1.452536e+03
  2.223823e+01    1.451063e+03
  2.229134e+01    1.449236e+03
  2.234446e+01    1.448726e+03
  2.239758e+01    1.448935e+03
  2.245070e+01    1.446010e+03
  2.250382e+01    1.446057e+03
  2.255693e+01    1.443414e+03
  2.261005e+01    1.427023e+03
  2.266317e+01    1.413629e+03
  2.271629e+01    1.404342e+03
  2.276941e+01    1.394870e+03
  2.282253e+01    1.388159e+03
  2.287564e+01    1.383892e+03
  2.292876e+01    1.378293e+03
  2.298188e+01    1.375605e+03
  2.303500e+01    1.374692e+03
  2.308812e+01    1.371337e+03
  2.314123e+01    1.368364e+03
  2.319435e+01    1.366000e+03
  2.324747e+01    1.358113e+03
  2.330059e+01    1.354743e+03
  2.335371e+01    1.352086e+03
  2.340683e+01    1.346707e+03
  2.345994e+01    1.343739e+03
  2.351306e+01    1.341795e+03
  2.356618e+01    1.337701e+03
  2.361930e+01    1.331989e+03
  2.367242e+01    1.326598e+03
  2.372553e+01    1.320407e+03
  2.377865e+01    1.315664e+03
  2.383177e+01    1.309907e+03
  2.388489e+01    1.304582e+03
  2.393801e+01    1.299869e+03
  2.399113e+01    1.299990e+03
  2.404424e+01    1.298825e+03
  2.409736e+01    1.297509e+03
  2.415048e+01    1.293861e+03
  2.420360e+01    1.288883e+03
  2.425672e+01    1.288506e+03
  2.430983e+01    1.283262e+03
  2.436295e+01    1.282010e+03
  2.441607e+01    1.280269e+03
  2.446919e+01    1.278159e+03
  2.452231e+01    1.276311e+03
  2.457542e+01    1.275844e+03
  2.462854e+01    1.271190e+03
  2.468166e+01    1.272443e+03
  2.473478e+01    1.267115e+03
  2.478790e+01    1.258553e+03
  2.484102e+01    1.256759e+03
  2.489413e+01    1.250852e+03
  2.494725e+01    1.246544e+03
  2.500037e+01    1.242922e+03
  2.505349e+01    1.236473e+03
  2.510661e+01    1.232269e+03
  2.515972e+01    1.229802e+03
  2.521284e+01    1.229509e+03
  2.526596e+01    1.230156e+03
  2.531908e+01    1.222203e+03
  2.537220e+01    1.223552e+03
  2.542532e+01    1.220489e+03
  2.547843e+01    1.218864e+03
  2.553155e+01    1.210668e+03
  2.558467e+01    1.205884e+03
  2.563779e+01    1.196914e+03
  2.569091e+01    1.192697e+03
  2.574402e+01    1.184718e+03
  2.579714e+01    1.178303e+03
  2.585026e+01    1.169384e+03
  2.590338e+01    1.163346e+03
  2.595650e+01    1.161009e+03
  2.600962e+01    1.161288e+03
  2.606273e+01    1.159330e+03
  2.611585e+01    1.153005e+03
  2.616897e+01    1.158583e+03
  2.622209e+01    1.154882e+03
  2.627521e+01    1.147969e+03
  2.632832e+01    1.144280e+03
  2.638144e+01    1.144584e+03
  2.643456e+01    1.140326e+03
  2.648768e+01    1.111534e+03
  2.654080e+01    1.122001e+03
