# == pyFAI calibration ==
# Distance Sample to Detector: 0.2946421923531691 m
# PONI: 2.875e-01, 2.439e-01 m
# Rotations: -0.010990 -0.009181 0.000003 rad
# 
# == Fit2d calibration ==
# Distance Sample-beamCenter: 294.672 mm
# Center: x=1436.809, y=1655.851 pix
# Tilt: 0.820 deg  TiltPlanRot: -39.874 deg
# 
# Detector Pilatus 2M	 PixelSize= 1.720e-04, 1.720e-04 m
#    Detector has a mask: True 
#    Detector has a dark current: False 
#    detector has a flat field: False 
# 
# Wavelength: 2.0732883349524408e-11 m
# Mask applied: from detector
# Dark current applied: False
# Flat field applied: False
# Polarization factor: None
# Normalization factor: 1.0
# --> /gpfs/current/raw/FMue_3/FMue_3_20231024_175355_00140.dat
#        q_A^-1             I 
  3.483473e-02             nan
  8.795289e-02             nan
  1.410711e-01             nan
  1.941892e-01             nan
  2.473074e-01             nan
  3.004255e-01             nan
  3.535437e-01             nan
  4.066619e-01    1.252240e+04
  4.597800e-01    1.149292e+04
  5.128982e-01    9.749570e+03
  5.660163e-01    8.816234e+03
  6.191345e-01    8.435697e+03
  6.722527e-01    8.280910e+03
  7.253708e-01    8.302021e+03
  7.784890e-01    8.336063e+03
  8.316071e-01    8.493374e+03
  8.847253e-01    8.628161e+03
  9.378435e-01    8.873589e+03
  9.909616e-01    9.142891e+03
  1.044080e+00    9.377310e+03
  1.097198e+00    9.641187e+03
  1.150316e+00    1.016273e+04
  1.203434e+00    1.085410e+04
  1.256552e+00    1.174697e+04
  1.309671e+00    1.286359e+04
  1.362789e+00    1.394226e+04
  1.415907e+00    1.443138e+04
  1.469025e+00    1.451447e+04
  1.522143e+00    1.435818e+04
  1.575261e+00    1.376484e+04
  1.628380e+00    1.300401e+04
  1.681498e+00    1.207767e+04
  1.734616e+00    1.112286e+04
  1.787734e+00    1.029474e+04
  1.840852e+00    9.586233e+03
  1.893970e+00    9.035855e+03
  1.947089e+00    8.730335e+03
  2.000207e+00    8.445294e+03
  2.053325e+00    8.234653e+03
  2.106443e+00    8.504571e+03
  2.159561e+00    9.187324e+03
  2.212679e+00    9.469206e+03
  2.265797e+00    9.325442e+03
  2.318916e+00    8.716345e+03
  2.372034e+00    8.015628e+03
  2.425152e+00    8.270022e+03
  2.478270e+00    9.533982e+03
  2.531388e+00    1.197662e+04
  2.584506e+00    1.304158e+04
  2.637625e+00    1.090950e+04
  2.690743e+00    8.890831e+03
  2.743861e+00    7.924158e+03
  2.796979e+00    6.583348e+03
  2.850097e+00    5.654586e+03
  2.903215e+00    5.333148e+03
  2.956334e+00    5.283544e+03
  3.009452e+00    5.612879e+03
  3.062570e+00    6.933841e+03
  3.115688e+00    9.259558e+03
  3.168806e+00    9.272111e+03
  3.221924e+00    7.494077e+03
  3.275043e+00    5.944567e+03
  3.328161e+00    5.092131e+03
  3.381279e+00    4.898682e+03
  3.434397e+00    4.872312e+03
  3.487515e+00    4.878525e+03
  3.540633e+00    4.778499e+03
  3.593751e+00    4.677815e+03
  3.646870e+00    4.720495e+03
  3.699988e+00    4.868436e+03
  3.753106e+00    5.094495e+03
  3.806224e+00    5.307192e+03
  3.859342e+00    5.432233e+03
  3.912460e+00    5.691097e+03
  3.965579e+00    6.292570e+03
  4.018697e+00    7.015838e+03
  4.071815e+00    7.284513e+03
  4.124933e+00    6.938263e+03
  4.178051e+00    6.516597e+03
  4.231169e+00    6.353987e+03
  4.284288e+00    6.682426e+03
  4.337406e+00    7.989095e+03
  4.390524e+00    9.957178e+03
  4.443642e+00    1.201984e+04
  4.496760e+00    1.251246e+04
  4.549878e+00    8.833364e+03
  4.602997e+00    6.039797e+03
  4.656115e+00    5.367852e+03
  4.709233e+00    5.168250e+03
  4.762351e+00    5.132643e+03
  4.815469e+00    5.147510e+03
  4.868587e+00    5.215614e+03
  4.921705e+00    5.279296e+03
  4.974824e+00    5.374986e+03
  5.027942e+00    5.471876e+03
  5.081060e+00    5.601114e+03
  5.134178e+00    5.490107e+03
  5.187296e+00    5.162420e+03
  5.240414e+00    4.791581e+03
  5.293533e+00    4.562179e+03
  5.346651e+00    4.436157e+03
  5.399769e+00    4.362387e+03
  5.452887e+00    4.347973e+03
  5.506005e+00    4.238067e+03
  5.559123e+00    3.887086e+03
  5.612242e+00    3.684243e+03
  5.665360e+00    3.626299e+03
  5.718478e+00    3.578951e+03
  5.771596e+00    3.596785e+03
  5.824714e+00    3.679616e+03
  5.877832e+00    3.828623e+03
  5.930951e+00    4.021120e+03
  5.984069e+00    4.113955e+03
  6.037187e+00    4.016593e+03
  6.090305e+00    3.849703e+03
  6.143423e+00    3.765805e+03
  6.196541e+00    3.879171e+03
  6.249660e+00    4.038253e+03
  6.302778e+00    3.951917e+03
  6.355896e+00    3.678628e+03
  6.409014e+00    3.564681e+03
  6.462132e+00    3.499515e+03
  6.515250e+00    3.445966e+03
  6.568368e+00    3.463144e+03
  6.621487e+00    3.512945e+03
  6.674605e+00    3.590690e+03
  6.727723e+00    3.649944e+03
  6.780841e+00    3.570455e+03
  6.833959e+00    3.421378e+03
  6.887077e+00    3.309286e+03
  6.940196e+00    3.259602e+03
  6.993314e+00    3.301958e+03
  7.046432e+00    3.307439e+03
  7.099550e+00    3.230662e+03
  7.152668e+00    3.159692e+03
  7.205786e+00    3.107007e+03
  7.258905e+00    3.081957e+03
  7.312023e+00    3.128316e+03
  7.365141e+00    3.208035e+03
  7.418259e+00    3.267938e+03
  7.471377e+00    3.291855e+03
  7.524495e+00    3.342666e+03
  7.577614e+00    3.445230e+03
  7.630732e+00    3.520193e+03
  7.683850e+00    3.594432e+03
  7.736968e+00    3.674999e+03
  7.790086e+00    3.575590e+03
  7.843204e+00    3.382726e+03
  7.896322e+00    3.230004e+03
  7.949441e+00    3.168139e+03
  8.002559e+00    3.167694e+03
  8.055677e+00    3.147465e+03
  8.108795e+00    3.107280e+03
  8.161913e+00    3.067177e+03
  8.215031e+00    3.012869e+03
  8.268150e+00    2.959090e+03
  8.321268e+00    2.922282e+03
  8.374386e+00    2.896227e+03
  8.427504e+00    2.879359e+03
  8.480622e+00    2.861922e+03
  8.533740e+00    2.815246e+03
  8.586859e+00    2.847234e+03
  8.639977e+00    2.839263e+03
  8.693095e+00    2.831931e+03
  8.746213e+00    2.834467e+03
  8.799331e+00    2.827922e+03
  8.852449e+00    2.817011e+03
  8.905568e+00    2.819497e+03
  8.958686e+00    2.819342e+03
  9.011804e+00    2.813730e+03
  9.064922e+00    2.758637e+03
  9.118040e+00    2.717881e+03
  9.171158e+00    2.700717e+03
  9.224276e+00    2.676987e+03
  9.277395e+00    2.631798e+03
  9.330513e+00    2.603142e+03
  9.383631e+00    2.581180e+03
  9.436749e+00    2.565631e+03
  9.489867e+00    2.572479e+03
  9.542985e+00    2.577030e+03
  9.596104e+00    2.570226e+03
  9.649222e+00    2.574025e+03
  9.702340e+00    2.573088e+03
  9.755458e+00    2.559814e+03
  9.808576e+00    2.554935e+03
  9.861694e+00    2.557596e+03
  9.914813e+00    2.550387e+03
  9.967931e+00    2.529874e+03
  1.002105e+01    2.493915e+03
  1.007417e+01    2.460734e+03
  1.012729e+01    2.442110e+03
  1.018040e+01    2.432562e+03
  1.023352e+01    2.405458e+03
  1.028664e+01    2.372023e+03
  1.033976e+01    2.354623e+03
  1.039288e+01    2.374624e+03
  1.044599e+01    2.364164e+03
  1.049911e+01    2.359050e+03
  1.055223e+01    2.346838e+03
  1.060535e+01    2.348579e+03
  1.065847e+01    2.339325e+03
  1.071158e+01    2.329131e+03
  1.076470e+01    2.322809e+03
  1.081782e+01    2.319657e+03
  1.087094e+01    2.309791e+03
  1.092406e+01    2.316520e+03
  1.097718e+01    2.320618e+03
  1.103029e+01    2.322198e+03
  1.108341e+01    2.316430e+03
  1.113653e+01    2.299070e+03
  1.118965e+01    2.281912e+03
  1.124277e+01    2.266876e+03
  1.129588e+01    2.259259e+03
  1.134900e+01    2.250036e+03
  1.140212e+01    2.253606e+03
  1.145524e+01    2.254600e+03
  1.150836e+01    2.264108e+03
  1.156148e+01    2.260836e+03
  1.161459e+01    2.266711e+03
  1.166771e+01    2.255185e+03
  1.172083e+01    2.257619e+03
  1.177395e+01    2.237977e+03
  1.182707e+01    2.226298e+03
  1.188018e+01    2.228582e+03
  1.193330e+01    2.212451e+03
  1.198642e+01    2.195631e+03
  1.203954e+01    2.175421e+03
  1.209266e+01    2.168224e+03
  1.214578e+01    2.157640e+03
  1.219889e+01    2.162306e+03
  1.225201e+01    2.164827e+03
  1.230513e+01    2.159177e+03
  1.235825e+01    2.158533e+03
  1.241137e+01    2.142873e+03
  1.246448e+01    2.140803e+03
  1.251760e+01    2.135541e+03
  1.257072e+01    2.129121e+03
  1.262384e+01    2.135339e+03
  1.267696e+01    2.123234e+03
  1.273008e+01    2.107077e+03
  1.278319e+01    2.098300e+03
  1.283631e+01    2.088925e+03
  1.288943e+01    2.082104e+03
  1.294255e+01    2.070799e+03
  1.299567e+01    2.064491e+03
  1.304878e+01    2.059863e+03
  1.310190e+01    2.057277e+03
  1.315502e+01    2.053268e+03
  1.320814e+01    2.031172e+03
  1.326126e+01    2.006731e+03
  1.331437e+01    1.998708e+03
  1.336749e+01    1.989381e+03
  1.342061e+01    1.979833e+03
  1.347373e+01    2.002493e+03
  1.352685e+01    2.001963e+03
  1.357997e+01    1.991281e+03
  1.363308e+01    1.978338e+03
  1.368620e+01    1.970278e+03
  1.373932e+01    1.963060e+03
  1.379244e+01    1.957350e+03
  1.384556e+01    1.952308e+03
  1.389867e+01    1.943050e+03
  1.395179e+01    1.932893e+03
  1.400491e+01    1.930644e+03
  1.405803e+01    1.924467e+03
  1.411115e+01    1.920333e+03
  1.416427e+01    1.910559e+03
  1.421738e+01    1.905961e+03
  1.427050e+01    1.899083e+03
  1.432362e+01    1.897707e+03
  1.437674e+01    1.895609e+03
  1.442986e+01    1.883519e+03
  1.448297e+01    1.876931e+03
  1.453609e+01    1.871384e+03
  1.458921e+01    1.861650e+03
  1.464233e+01    1.857083e+03
  1.469545e+01    1.850748e+03
  1.474857e+01    1.830329e+03
  1.480168e+01    1.841046e+03
  1.485480e+01    1.839232e+03
  1.490792e+01    1.833557e+03
  1.496104e+01    1.825598e+03
  1.501416e+01    1.821893e+03
  1.506727e+01    1.819515e+03
  1.512039e+01    1.815673e+03
  1.517351e+01    1.827529e+03
  1.522663e+01    1.843707e+03
  1.527975e+01    1.839224e+03
  1.533286e+01    1.823321e+03
  1.538598e+01    1.814939e+03
  1.543910e+01    1.805644e+03
  1.549222e+01    1.803036e+03
  1.554534e+01    1.802878e+03
  1.559846e+01    1.799573e+03
  1.565157e+01    1.792469e+03
  1.570469e+01    1.786863e+03
  1.575781e+01    1.783901e+03
  1.581093e+01    1.780008e+03
  1.586405e+01    1.779890e+03
  1.591716e+01    1.772393e+03
  1.597028e+01    1.767094e+03
  1.602340e+01    1.751878e+03
  1.607652e+01    1.740505e+03
  1.612964e+01    1.716305e+03
  1.618276e+01    1.704081e+03
  1.623587e+01    1.707463e+03
  1.628899e+01    1.721755e+03
  1.634211e+01    1.721197e+03
  1.639523e+01    1.714771e+03
  1.644835e+01    1.716916e+03
  1.650146e+01    1.709321e+03
  1.655458e+01    1.708590e+03
  1.660770e+01    1.704276e+03
  1.666082e+01    1.700516e+03
  1.671394e+01    1.700122e+03
  1.676706e+01    1.694373e+03
  1.682017e+01    1.707066e+03
  1.687329e+01    1.696254e+03
  1.692641e+01    1.691142e+03
  1.697953e+01    1.685682e+03
  1.703265e+01    1.681747e+03
  1.708576e+01    1.681165e+03
  1.713888e+01    1.671352e+03
  1.719200e+01    1.672448e+03
  1.724512e+01    1.665657e+03
  1.729824e+01    1.665178e+03
  1.735136e+01    1.657818e+03
  1.740447e+01    1.634802e+03
  1.745759e+01    1.641982e+03
  1.751071e+01    1.644253e+03
  1.756383e+01    1.655550e+03
  1.761695e+01    1.639156e+03
  1.767006e+01    1.637000e+03
  1.772318e+01    1.627210e+03
  1.777630e+01    1.626521e+03
  1.782942e+01    1.618348e+03
  1.788254e+01    1.614138e+03
  1.793565e+01    1.610947e+03
  1.798877e+01    1.608182e+03
  1.804189e+01    1.601231e+03
  1.809501e+01    1.597266e+03
  1.814813e+01    1.594510e+03
  1.820125e+01    1.589779e+03
  1.825436e+01    1.594393e+03
  1.830748e+01    1.588022e+03
  1.836060e+01    1.583030e+03
  1.841372e+01    1.581185e+03
  1.846684e+01    1.576044e+03
  1.851995e+01    1.556278e+03
  1.857307e+01    1.542439e+03
  1.862619e+01    1.531389e+03
  1.867931e+01    1.528818e+03
  1.873243e+01    1.547598e+03
  1.878555e+01    1.550344e+03
  1.883866e+01    1.549840e+03
  1.889178e+01    1.547528e+03
  1.894490e+01    1.558603e+03
  1.899802e+01    1.550434e+03
  1.905114e+01    1.544433e+03
  1.910425e+01    1.539056e+03
  1.915737e+01    1.535524e+03
  1.921049e+01    1.531115e+03
  1.926361e+01    1.527691e+03
  1.931673e+01    1.525708e+03
  1.936985e+01    1.523089e+03
  1.942296e+01    1.521220e+03
  1.947608e+01    1.519246e+03
  1.952920e+01    1.516023e+03
  1.958232e+01    1.516856e+03
  1.963544e+01    1.522705e+03
  1.968855e+01    1.506193e+03
  1.974167e+01    1.495272e+03
  1.979479e+01    1.501114e+03
  1.984791e+01    1.500005e+03
  1.990103e+01    1.496770e+03
  1.995414e+01    1.495491e+03
  2.000726e+01    1.492750e+03
  2.006038e+01    1.488366e+03
  2.011350e+01    1.482879e+03
  2.016662e+01    1.478726e+03
  2.021974e+01    1.481522e+03
  2.027285e+01    1.486755e+03
  2.032597e+01    1.472035e+03
  2.037909e+01    1.467187e+03
  2.043221e+01    1.462421e+03
  2.048533e+01    1.460506e+03
  2.053844e+01    1.459674e+03
  2.059156e+01    1.454989e+03
  2.064468e+01    1.452028e+03
  2.069780e+01    1.431525e+03
  2.075092e+01    1.407275e+03
  2.080404e+01    1.393937e+03
  2.085715e+01    1.413134e+03
  2.091027e+01    1.440478e+03
  2.096339e+01    1.446983e+03
  2.101651e+01    1.451038e+03
  2.106963e+01    1.455362e+03
  2.112274e+01    1.459042e+03
  2.117586e+01    1.461155e+03
  2.122898e+01    1.462801e+03
  2.128210e+01    1.460840e+03
  2.133522e+01    1.460292e+03
  2.138834e+01    1.458539e+03
  2.144145e+01    1.458281e+03
  2.149457e+01    1.458532e+03
  2.154769e+01    1.459549e+03
  2.160081e+01    1.457461e+03
  2.165393e+01    1.458829e+03
  2.170704e+01    1.458222e+03
  2.176016e+01    1.447246e+03
  2.181328e+01    1.457038e+03
  2.186640e+01    1.458660e+03
  2.191952e+01    1.456474e+03
  2.197263e+01    1.453126e+03
  2.202575e+01    1.451938e+03
  2.207887e+01    1.451817e+03
  2.213199e+01    1.449875e+03
  2.218511e+01    1.448263e+03
  2.223823e+01    1.448653e+03
  2.229134e+01    1.447100e+03
  2.234446e+01    1.445830e+03
  2.239758e+01    1.445483e+03
  2.245070e+01    1.442352e+03
  2.250382e+01    1.443797e+03
  2.255693e+01    1.440128e+03
  2.261005e+01    1.422408e+03
  2.266317e+01    1.411043e+03
  2.271629e+01    1.402287e+03
  2.276941e+01    1.392739e+03
  2.282253e+01    1.384551e+03
  2.287564e+01    1.380064e+03
  2.292876e+01    1.376039e+03
  2.298188e+01    1.373017e+03
  2.303500e+01    1.370465e+03
  2.308812e+01    1.368372e+03
  2.314123e+01    1.365810e+03
  2.319435e+01    1.361787e+03
  2.324747e+01    1.354740e+03
  2.330059e+01    1.350999e+03
  2.335371e+01    1.347807e+03
  2.340683e+01    1.343424e+03
  2.345994e+01    1.341631e+03
  2.351306e+01    1.336486e+03
  2.356618e+01    1.332624e+03
  2.361930e+01    1.326576e+03
  2.367242e+01    1.323136e+03
  2.372553e+01    1.316300e+03
  2.377865e+01    1.310898e+03
  2.383177e+01    1.306461e+03
  2.388489e+01    1.302791e+03
  2.393801e+01    1.297458e+03
  2.399113e+01    1.295932e+03
  2.404424e+01    1.295253e+03
  2.409736e+01    1.292269e+03
  2.415048e+01    1.290756e+03
  2.420360e+01    1.285332e+03
  2.425672e+01    1.283866e+03
  2.430983e+01    1.281417e+03
  2.436295e+01    1.279443e+03
  2.441607e+01    1.278227e+03
  2.446919e+01    1.273773e+03
  2.452231e+01    1.273597e+03
  2.457542e+01    1.270554e+03
  2.462854e+01    1.268668e+03
  2.468166e+01    1.267799e+03
  2.473478e+01    1.260499e+03
  2.478790e+01    1.255217e+03
  2.484102e+01    1.252896e+03
  2.489413e+01    1.246440e+03
  2.494725e+01    1.242697e+03
  2.500037e+01    1.238780e+03
  2.505349e+01    1.234333e+03
  2.510661e+01    1.228627e+03
  2.515972e+01    1.227205e+03
  2.521284e+01    1.227276e+03
  2.526596e+01    1.225372e+03
  2.531908e+01    1.219494e+03
  2.537220e+01    1.218958e+03
  2.542532e+01    1.216800e+03
  2.547843e+01    1.212236e+03
  2.553155e+01    1.207769e+03
  2.558467e+01    1.201485e+03
  2.563779e+01    1.194651e+03
  2.569091e+01    1.191943e+03
  2.574402e+01    1.180415e+03
  2.579714e+01    1.173210e+03
  2.585026e+01    1.167240e+03
  2.590338e+01    1.154129e+03
  2.595650e+01    1.157352e+03
  2.600962e+01    1.156262e+03
  2.606273e+01    1.157666e+03
  2.611585e+01    1.156611e+03
  2.616897e+01    1.155515e+03
  2.622209e+01    1.153093e+03
  2.627521e+01    1.146841e+03
  2.632832e+01    1.140329e+03
  2.638144e+01    1.140526e+03
  2.643456e+01    1.131786e+03
  2.648768e+01    1.119495e+03
  2.654080e+01    1.101113e+03
