# == pyFAI calibration ==
# Distance Sample to Detector: 0.2946421923531691 m
# PONI: 2.875e-01, 2.439e-01 m
# Rotations: -0.010990 -0.009181 0.000003 rad
# 
# == Fit2d calibration ==
# Distance Sample-beamCenter: 294.672 mm
# Center: x=1436.809, y=1655.851 pix
# Tilt: 0.820 deg  TiltPlanRot: -39.874 deg
# 
# Detector Pilatus 2M	 PixelSize= 1.720e-04, 1.720e-04 m
#    Detector has a mask: True 
#    Detector has a dark current: False 
#    detector has a flat field: False 
# 
# Wavelength: 2.0732883349524408e-11 m
# Mask applied: from detector
# Dark current applied: False
# Flat field applied: False
# Polarization factor: None
# Normalization factor: 1.0
# --> /gpfs/current/raw/FMue_3/FMue_3_20231024_175355_00167.dat
#        q_A^-1             I 
  3.483473e-02             nan
  8.795289e-02             nan
  1.410711e-01             nan
  1.941892e-01             nan
  2.473074e-01             nan
  3.004255e-01             nan
  3.535437e-01             nan
  4.066619e-01    1.167404e+04
  4.597800e-01    1.064989e+04
  5.128982e-01    9.032576e+03
  5.660163e-01    8.201576e+03
  6.191345e-01    7.879408e+03
  6.722527e-01    7.763632e+03
  7.253708e-01    7.808325e+03
  7.784890e-01    7.852820e+03
  8.316071e-01    7.996128e+03
  8.847253e-01    8.124725e+03
  9.378435e-01    8.293928e+03
  9.909616e-01    8.499726e+03
  1.044080e+00    8.815142e+03
  1.097198e+00    9.246062e+03
  1.150316e+00    9.849637e+03
  1.203434e+00    1.055596e+04
  1.256552e+00    1.145345e+04
  1.309671e+00    1.259317e+04
  1.362789e+00    1.367000e+04
  1.415907e+00    1.413440e+04
  1.469025e+00    1.421197e+04
  1.522143e+00    1.408386e+04
  1.575261e+00    1.351055e+04
  1.628380e+00    1.277859e+04
  1.681498e+00    1.185803e+04
  1.734616e+00    1.090844e+04
  1.787734e+00    1.008688e+04
  1.840852e+00    9.383978e+03
  1.893970e+00    8.797123e+03
  1.947089e+00    8.402857e+03
  2.000207e+00    8.099785e+03
  2.053325e+00    8.008773e+03
  2.106443e+00    8.440022e+03
  2.159561e+00    9.375583e+03
  2.212679e+00    9.634756e+03
  2.265797e+00    9.236172e+03
  2.318916e+00    8.508303e+03
  2.372034e+00    7.822408e+03
  2.425152e+00    8.074773e+03
  2.478270e+00    9.506352e+03
  2.531388e+00    1.256157e+04
  2.584506e+00    1.352037e+04
  2.637625e+00    1.058225e+04
  2.690743e+00    8.462688e+03
  2.743861e+00    7.619600e+03
  2.796979e+00    6.354231e+03
  2.850097e+00    5.474289e+03
  2.903215e+00    5.177040e+03
  2.956334e+00    5.123279e+03
  3.009452e+00    5.472852e+03
  3.062570e+00    6.930516e+03
  3.115688e+00    9.189862e+03
  3.168806e+00    8.963972e+03
  3.221924e+00    7.222720e+03
  3.275043e+00    5.697505e+03
  3.328161e+00    4.849257e+03
  3.381279e+00    4.620704e+03
  3.434397e+00    4.629543e+03
  3.487515e+00    4.713298e+03
  3.540633e+00    4.634808e+03
  3.593751e+00    4.555937e+03
  3.646870e+00    4.614157e+03
  3.699988e+00    4.779547e+03
  3.753106e+00    5.056651e+03
  3.806224e+00    5.290949e+03
  3.859342e+00    5.342894e+03
  3.912460e+00    5.602130e+03
  3.965579e+00    6.365674e+03
  4.018697e+00    7.238076e+03
  4.071815e+00    7.301732e+03
  4.124933e+00    6.753498e+03
  4.178051e+00    6.332042e+03
  4.231169e+00    6.181526e+03
  4.284288e+00    6.554952e+03
  4.337406e+00    8.089393e+03
  4.390524e+00    1.020929e+04
  4.443642e+00    1.188836e+04
  4.496760e+00    1.210843e+04
  4.549878e+00    8.449152e+03
  4.602997e+00    5.863500e+03
  4.656115e+00    5.235792e+03
  4.709233e+00    5.027586e+03
  4.762351e+00    4.974884e+03
  4.815469e+00    5.023660e+03
  4.868587e+00    5.146072e+03
  4.921705e+00    5.218880e+03
  4.974824e+00    5.307563e+03
  5.027942e+00    5.440739e+03
  5.081060e+00    5.609558e+03
  5.134178e+00    5.431963e+03
  5.187296e+00    5.016639e+03
  5.240414e+00    4.638952e+03
  5.293533e+00    4.433456e+03
  5.346651e+00    4.340303e+03
  5.399769e+00    4.263938e+03
  5.452887e+00    4.234663e+03
  5.506005e+00    4.107638e+03
  5.559123e+00    3.756203e+03
  5.612242e+00    3.581108e+03
  5.665360e+00    3.543915e+03
  5.718478e+00    3.526837e+03
  5.771596e+00    3.572735e+03
  5.824714e+00    3.660963e+03
  5.877832e+00    3.821922e+03
  5.930951e+00    4.067344e+03
  5.984069e+00    4.104847e+03
  6.037187e+00    3.924955e+03
  6.090305e+00    3.753699e+03
  6.143423e+00    3.712153e+03
  6.196541e+00    3.848451e+03
  6.249660e+00    3.976378e+03
  6.302778e+00    3.851070e+03
  6.355896e+00    3.591570e+03
  6.409014e+00    3.499092e+03
  6.462132e+00    3.433166e+03
  6.515250e+00    3.391512e+03
  6.568368e+00    3.411199e+03
  6.621487e+00    3.478363e+03
  6.674605e+00    3.583916e+03
  6.727723e+00    3.632007e+03
  6.780841e+00    3.488572e+03
  6.833959e+00    3.312454e+03
  6.887077e+00    3.220188e+03
  6.940196e+00    3.188581e+03
  6.993314e+00    3.220732e+03
  7.046432e+00    3.221174e+03
  7.099550e+00    3.150294e+03
  7.152668e+00    3.088081e+03
  7.205786e+00    3.041499e+03
  7.258905e+00    3.027929e+03
  7.312023e+00    3.088918e+03
  7.365141e+00    3.181351e+03
  7.418259e+00    3.228459e+03
  7.471377e+00    3.236018e+03
  7.524495e+00    3.296420e+03
  7.577614e+00    3.426239e+03
  7.630732e+00    3.469229e+03
  7.683850e+00    3.502251e+03
  7.736968e+00    3.574909e+03
  7.790086e+00    3.474039e+03
  7.843204e+00    3.302979e+03
  7.896322e+00    3.176413e+03
  7.949441e+00    3.133508e+03
  8.002559e+00    3.141677e+03
  8.055677e+00    3.107238e+03
  8.108795e+00    3.040627e+03
  8.161913e+00    2.994612e+03
  8.215031e+00    2.946930e+03
  8.268150e+00    2.902483e+03
  8.321268e+00    2.866243e+03
  8.374386e+00    2.846474e+03
  8.427504e+00    2.830045e+03
  8.480622e+00    2.817949e+03
  8.533740e+00    2.776861e+03
  8.586859e+00    2.806106e+03
  8.639977e+00    2.797803e+03
  8.693095e+00    2.783994e+03
  8.746213e+00    2.791663e+03
  8.799331e+00    2.781941e+03
  8.852449e+00    2.760597e+03
  8.905568e+00    2.764277e+03
  8.958686e+00    2.763350e+03
  9.011804e+00    2.758683e+03
  9.064922e+00    2.713812e+03
  9.118040e+00    2.682531e+03
  9.171158e+00    2.660781e+03
  9.224276e+00    2.621697e+03
  9.277395e+00    2.573038e+03
  9.330513e+00    2.545371e+03
  9.383631e+00    2.521860e+03
  9.436749e+00    2.508055e+03
  9.489867e+00    2.523052e+03
  9.542985e+00    2.531724e+03
  9.596104e+00    2.528443e+03
  9.649222e+00    2.535458e+03
  9.702340e+00    2.527756e+03
  9.755458e+00    2.514692e+03
  9.808576e+00    2.509563e+03
  9.861694e+00    2.509730e+03
  9.914813e+00    2.495110e+03
  9.967931e+00    2.471442e+03
  1.002105e+01    2.446220e+03
  1.007417e+01    2.422864e+03
  1.012729e+01    2.404651e+03
  1.018040e+01    2.387021e+03
  1.023352e+01    2.353479e+03
  1.028664e+01    2.318688e+03
  1.033976e+01    2.304161e+03
  1.039288e+01    2.323608e+03
  1.044599e+01    2.314362e+03
  1.049911e+01    2.317739e+03
  1.055223e+01    2.303744e+03
  1.060535e+01    2.306450e+03
  1.065847e+01    2.295674e+03
  1.071158e+01    2.286310e+03
  1.076470e+01    2.276601e+03
  1.081782e+01    2.275538e+03
  1.087094e+01    2.265127e+03
  1.092406e+01    2.276537e+03
  1.097718e+01    2.281714e+03
  1.103029e+01    2.281398e+03
  1.108341e+01    2.269343e+03
  1.113653e+01    2.251773e+03
  1.118965e+01    2.232953e+03
  1.124277e+01    2.217956e+03
  1.129588e+01    2.214332e+03
  1.134900e+01    2.208328e+03
  1.140212e+01    2.215363e+03
  1.145524e+01    2.216210e+03
  1.150836e+01    2.224376e+03
  1.156148e+01    2.220862e+03
  1.161459e+01    2.223532e+03
  1.166771e+01    2.205209e+03
  1.172083e+01    2.209753e+03
  1.177395e+01    2.190484e+03
  1.182707e+01    2.183465e+03
  1.188018e+01    2.182863e+03
  1.193330e+01    2.168231e+03
  1.198642e+01    2.149660e+03
  1.203954e+01    2.131015e+03
  1.209266e+01    2.126704e+03
  1.214578e+01    2.120174e+03
  1.219889e+01    2.126816e+03
  1.225201e+01    2.126297e+03
  1.230513e+01    2.120120e+03
  1.235825e+01    2.117139e+03
  1.241137e+01    2.100601e+03
  1.246448e+01    2.100094e+03
  1.251760e+01    2.094732e+03
  1.257072e+01    2.088996e+03
  1.262384e+01    2.096825e+03
  1.267696e+01    2.083982e+03
  1.273008e+01    2.067495e+03
  1.278319e+01    2.058911e+03
  1.283631e+01    2.047012e+03
  1.288943e+01    2.041832e+03
  1.294255e+01    2.030555e+03
  1.299567e+01    2.026991e+03
  1.304878e+01    2.020446e+03
  1.310190e+01    2.019632e+03
  1.315502e+01    2.014079e+03
  1.320814e+01    1.993839e+03
  1.326126e+01    1.968746e+03
  1.331437e+01    1.960157e+03
  1.336749e+01    1.955246e+03
  1.342061e+01    1.942288e+03
  1.347373e+01    1.961684e+03
  1.352685e+01    1.961754e+03
  1.357997e+01    1.948014e+03
  1.363308e+01    1.938761e+03
  1.368620e+01    1.932882e+03
  1.373932e+01    1.924261e+03
  1.379244e+01    1.918716e+03
  1.384556e+01    1.911895e+03
  1.389867e+01    1.903612e+03
  1.395179e+01    1.894865e+03
  1.400491e+01    1.893210e+03
  1.405803e+01    1.889519e+03
  1.411115e+01    1.882797e+03
  1.416427e+01    1.871788e+03
  1.421738e+01    1.868772e+03
  1.427050e+01    1.859556e+03
  1.432362e+01    1.859965e+03
  1.437674e+01    1.857487e+03
  1.442986e+01    1.848301e+03
  1.448297e+01    1.841174e+03
  1.453609e+01    1.833699e+03
  1.458921e+01    1.824768e+03
  1.464233e+01    1.820490e+03
  1.469545e+01    1.813471e+03
  1.474857e+01    1.795738e+03
  1.480168e+01    1.804513e+03
  1.485480e+01    1.802783e+03
  1.490792e+01    1.796769e+03
  1.496104e+01    1.790084e+03
  1.501416e+01    1.789061e+03
  1.506727e+01    1.783636e+03
  1.512039e+01    1.781030e+03
  1.517351e+01    1.792871e+03
  1.522663e+01    1.808001e+03
  1.527975e+01    1.803297e+03
  1.533286e+01    1.787828e+03
  1.538598e+01    1.778227e+03
  1.543910e+01    1.771019e+03
  1.549222e+01    1.767955e+03
  1.554534e+01    1.765942e+03
  1.559846e+01    1.764192e+03
  1.565157e+01    1.757977e+03
  1.570469e+01    1.751685e+03
  1.575781e+01    1.748822e+03
  1.581093e+01    1.745750e+03
  1.586405e+01    1.743680e+03
  1.591716e+01    1.735768e+03
  1.597028e+01    1.731537e+03
  1.602340e+01    1.715801e+03
  1.607652e+01    1.704149e+03
  1.612964e+01    1.682529e+03
  1.618276e+01    1.669867e+03
  1.623587e+01    1.672255e+03
  1.628899e+01    1.687246e+03
  1.634211e+01    1.685986e+03
  1.639523e+01    1.680295e+03
  1.644835e+01    1.683762e+03
  1.650146e+01    1.677919e+03
  1.655458e+01    1.675393e+03
  1.660770e+01    1.671332e+03
  1.666082e+01    1.666611e+03
  1.671394e+01    1.665545e+03
  1.676706e+01    1.659844e+03
  1.682017e+01    1.673110e+03
  1.687329e+01    1.663436e+03
  1.692641e+01    1.656284e+03
  1.697953e+01    1.651691e+03
  1.703265e+01    1.648634e+03
  1.708576e+01    1.645944e+03
  1.713888e+01    1.638384e+03
  1.719200e+01    1.637808e+03
  1.724512e+01    1.628797e+03
  1.729824e+01    1.629901e+03
  1.735136e+01    1.623288e+03
  1.740447e+01    1.601840e+03
  1.745759e+01    1.609203e+03
  1.751071e+01    1.610305e+03
  1.756383e+01    1.621998e+03
  1.761695e+01    1.606151e+03
  1.767006e+01    1.603872e+03
  1.772318e+01    1.594328e+03
  1.777630e+01    1.592578e+03
  1.782942e+01    1.584514e+03
  1.788254e+01    1.581234e+03
  1.793565e+01    1.578812e+03
  1.798877e+01    1.576693e+03
  1.804189e+01    1.569332e+03
  1.809501e+01    1.564587e+03
  1.814813e+01    1.562991e+03
  1.820125e+01    1.557544e+03
  1.825436e+01    1.562120e+03
  1.830748e+01    1.557166e+03
  1.836060e+01    1.551913e+03
  1.841372e+01    1.549528e+03
  1.846684e+01    1.545216e+03
  1.851995e+01    1.526556e+03
  1.857307e+01    1.512866e+03
  1.862619e+01    1.502470e+03
  1.867931e+01    1.498992e+03
  1.873243e+01    1.517644e+03
  1.878555e+01    1.519523e+03
  1.883866e+01    1.518365e+03
  1.889178e+01    1.517483e+03
  1.894490e+01    1.528888e+03
  1.899802e+01    1.519741e+03
  1.905114e+01    1.514790e+03
  1.910425e+01    1.510100e+03
  1.915737e+01    1.506076e+03
  1.921049e+01    1.500562e+03
  1.926361e+01    1.497372e+03
  1.931673e+01    1.494401e+03
  1.936985e+01    1.492282e+03
  1.942296e+01    1.489552e+03
  1.947608e+01    1.488687e+03
  1.952920e+01    1.484349e+03
  1.958232e+01    1.485560e+03
  1.963544e+01    1.491594e+03
  1.968855e+01    1.477364e+03
  1.974167e+01    1.466503e+03
  1.979479e+01    1.470434e+03
  1.984791e+01    1.469473e+03
  1.990103e+01    1.466921e+03
  1.995414e+01    1.465516e+03
  2.000726e+01    1.461438e+03
  2.006038e+01    1.457640e+03
  2.011350e+01    1.453215e+03
  2.016662e+01    1.447920e+03
  2.021974e+01    1.451437e+03
  2.027285e+01    1.456844e+03
  2.032597e+01    1.440393e+03
  2.037909e+01    1.437313e+03
  2.043221e+01    1.434074e+03
  2.048533e+01    1.430512e+03
  2.053844e+01    1.429378e+03
  2.059156e+01    1.424829e+03
  2.064468e+01    1.421865e+03
  2.069780e+01    1.401960e+03
  2.075092e+01    1.379078e+03
  2.080404e+01    1.365050e+03
  2.085715e+01    1.385138e+03
  2.091027e+01    1.409899e+03
  2.096339e+01    1.416808e+03
  2.101651e+01    1.420992e+03
  2.106963e+01    1.425215e+03
  2.112274e+01    1.429285e+03
  2.117586e+01    1.430335e+03
  2.122898e+01    1.433445e+03
  2.128210e+01    1.430086e+03
  2.133522e+01    1.430998e+03
  2.138834e+01    1.428006e+03
  2.144145e+01    1.427646e+03
  2.149457e+01    1.429295e+03
  2.154769e+01    1.426915e+03
  2.160081e+01    1.426751e+03
  2.165393e+01    1.428479e+03
  2.170704e+01    1.426745e+03
  2.176016e+01    1.418270e+03
  2.181328e+01    1.426642e+03
  2.186640e+01    1.427880e+03
  2.191952e+01    1.425470e+03
  2.197263e+01    1.424657e+03
  2.202575e+01    1.421716e+03
  2.207887e+01    1.421900e+03
  2.213199e+01    1.420199e+03
  2.218511e+01    1.418431e+03
  2.223823e+01    1.418709e+03
  2.229134e+01    1.416979e+03
  2.234446e+01    1.416467e+03
  2.239758e+01    1.414331e+03
  2.245070e+01    1.413321e+03
  2.250382e+01    1.414455e+03
  2.255693e+01    1.412337e+03
  2.261005e+01    1.392294e+03
  2.266317e+01    1.380136e+03
  2.271629e+01    1.372454e+03
  2.276941e+01    1.362369e+03
  2.282253e+01    1.357674e+03
  2.287564e+01    1.351206e+03
  2.292876e+01    1.347250e+03
  2.298188e+01    1.345190e+03
  2.303500e+01    1.341658e+03
  2.308812e+01    1.339243e+03
  2.314123e+01    1.337303e+03
  2.319435e+01    1.333335e+03
  2.324747e+01    1.325497e+03
  2.330059e+01    1.322913e+03
  2.335371e+01    1.320712e+03
  2.340683e+01    1.315462e+03
  2.345994e+01    1.312818e+03
  2.351306e+01    1.309708e+03
  2.356618e+01    1.304678e+03
  2.361930e+01    1.297917e+03
  2.367242e+01    1.294323e+03
  2.372553e+01    1.287234e+03
  2.377865e+01    1.282953e+03
  2.383177e+01    1.277709e+03
  2.388489e+01    1.274030e+03
  2.393801e+01    1.269906e+03
  2.399113e+01    1.269640e+03
  2.404424e+01    1.269523e+03
  2.409736e+01    1.266067e+03
  2.415048e+01    1.264036e+03
  2.420360e+01    1.260632e+03
  2.425672e+01    1.258193e+03
  2.430983e+01    1.253408e+03
  2.436295e+01    1.254407e+03
  2.441607e+01    1.251607e+03
  2.446919e+01    1.248627e+03
  2.452231e+01    1.249152e+03
  2.457542e+01    1.244434e+03
  2.462854e+01    1.242224e+03
  2.468166e+01    1.239298e+03
  2.473478e+01    1.234628e+03
  2.478790e+01    1.230354e+03
  2.484102e+01    1.224870e+03
  2.489413e+01    1.220359e+03
  2.494725e+01    1.217385e+03
  2.500037e+01    1.213555e+03
  2.505349e+01    1.208329e+03
  2.510661e+01    1.203497e+03
  2.515972e+01    1.202890e+03
  2.521284e+01    1.199911e+03
  2.526596e+01    1.201192e+03
  2.531908e+01    1.193022e+03
  2.537220e+01    1.193683e+03
  2.542532e+01    1.191136e+03
  2.547843e+01    1.189178e+03
  2.553155e+01    1.184481e+03
  2.558467e+01    1.177877e+03
  2.563779e+01    1.170227e+03
  2.569091e+01    1.164681e+03
  2.574402e+01    1.154450e+03
  2.579714e+01    1.151473e+03
  2.585026e+01    1.146494e+03
  2.590338e+01    1.136657e+03
  2.595650e+01    1.133757e+03
  2.600962e+01    1.131739e+03
  2.606273e+01    1.132281e+03
  2.611585e+01    1.131519e+03
  2.616897e+01    1.131138e+03
  2.622209e+01    1.131266e+03
  2.627521e+01    1.127804e+03
  2.632832e+01    1.117493e+03
  2.638144e+01    1.115004e+03
  2.643456e+01    1.114329e+03
  2.648768e+01    1.100342e+03
  2.654080e+01    1.072999e+03
