# == pyFAI calibration ==
# Distance Sample to Detector: 0.2946421923531691 m
# PONI: 2.875e-01, 2.439e-01 m
# Rotations: -0.010990 -0.009181 0.000003 rad
# 
# == Fit2d calibration ==
# Distance Sample-beamCenter: 294.672 mm
# Center: x=1436.809, y=1655.851 pix
# Tilt: 0.820 deg  TiltPlanRot: -39.874 deg
# 
# Detector Pilatus 2M	 PixelSize= 1.720e-04, 1.720e-04 m
#    Detector has a mask: True 
#    Detector has a dark current: False 
#    detector has a flat field: False 
# 
# Wavelength: 2.0732883349524408e-11 m
# Mask applied: from detector
# Dark current applied: False
# Flat field applied: False
# Polarization factor: None
# Normalization factor: 1.0
# --> /gpfs/current/raw/FMue_3/FMue_3_20231024_175355_00076.dat
#        q_A^-1             I 
  3.483473e-02             nan
  8.795289e-02             nan
  1.410711e-01             nan
  1.941892e-01             nan
  2.473074e-01             nan
  3.004255e-01             nan
  3.535437e-01             nan
  4.066619e-01    1.482629e+04
  4.597800e-01    1.336271e+04
  5.128982e-01    1.120665e+04
  5.660163e-01    1.000131e+04
  6.191345e-01    9.431405e+03
  6.722527e-01    9.120027e+03
  7.253708e-01    9.002540e+03
  7.784890e-01    8.957457e+03
  8.316071e-01    9.085178e+03
  8.847253e-01    9.263528e+03
  9.378435e-01    9.684216e+03
  9.909616e-01    1.039828e+04
  1.044080e+00    1.049061e+04
  1.097198e+00    1.019511e+04
  1.150316e+00    1.056354e+04
  1.203434e+00    1.133487e+04
  1.256552e+00    1.232126e+04
  1.309671e+00    1.297180e+04
  1.362789e+00    1.394079e+04
  1.415907e+00    1.459185e+04
  1.469025e+00    1.481719e+04
  1.522143e+00    1.472116e+04
  1.575261e+00    1.412533e+04
  1.628380e+00    1.338445e+04
  1.681498e+00    1.246358e+04
  1.734616e+00    1.151603e+04
  1.787734e+00    1.069724e+04
  1.840852e+00    1.001884e+04
  1.893970e+00    9.514583e+03
  1.947089e+00    9.448199e+03
  2.000207e+00    9.105803e+03
  2.053325e+00    8.486731e+03
  2.106443e+00    8.381044e+03
  2.159561e+00    8.655989e+03
  2.212679e+00    8.892547e+03
  2.265797e+00    9.140881e+03
  2.318916e+00    8.930771e+03
  2.372034e+00    8.350624e+03
  2.425152e+00    8.492705e+03
  2.478270e+00    9.047705e+03
  2.531388e+00    1.010310e+04
  2.584506e+00    1.066765e+04
  2.637625e+00    1.012936e+04
  2.690743e+00    9.247474e+03
  2.743861e+00    8.432875e+03
  2.796979e+00    7.134879e+03
  2.850097e+00    6.143362e+03
  2.903215e+00    5.819797e+03
  2.956334e+00    5.744467e+03
  3.009452e+00    5.940614e+03
  3.062570e+00    6.771006e+03
  3.115688e+00    8.785854e+03
  3.168806e+00    9.364184e+03
  3.221924e+00    7.918355e+03
  3.275043e+00    6.427377e+03
  3.328161e+00    5.778022e+03
  3.381279e+00    5.870662e+03
  3.434397e+00    5.475501e+03
  3.487515e+00    5.218474e+03
  3.540633e+00    5.134254e+03
  3.593751e+00    4.955556e+03
  3.646870e+00    4.940987e+03
  3.699988e+00    5.044887e+03
  3.753106e+00    5.223058e+03
  3.806224e+00    5.329191e+03
  3.859342e+00    5.403655e+03
  3.912460e+00    5.559532e+03
  3.965579e+00    5.805176e+03
  4.018697e+00    6.232986e+03
  4.071815e+00    6.739716e+03
  4.124933e+00    6.926407e+03
  4.178051e+00    6.829309e+03
  4.231169e+00    6.728309e+03
  4.284288e+00    6.957584e+03
  4.337406e+00    7.678583e+03
  4.390524e+00    8.669799e+03
  4.443642e+00    1.091578e+04
  4.496760e+00    1.270839e+04
  4.549878e+00    9.496781e+03
  4.602997e+00    6.337583e+03
  4.656115e+00    5.562224e+03
  4.709233e+00    5.414965e+03
  4.762351e+00    5.524764e+03
  4.815469e+00    5.465052e+03
  4.868587e+00    5.340011e+03
  4.921705e+00    5.323982e+03
  4.974824e+00    5.382035e+03
  5.027942e+00    5.383817e+03
  5.081060e+00    5.400834e+03
  5.134178e+00    5.323040e+03
  5.187296e+00    5.152451e+03
  5.240414e+00    4.922190e+03
  5.293533e+00    4.746133e+03
  5.346651e+00    4.594624e+03
  5.399769e+00    4.465534e+03
  5.452887e+00    4.446893e+03
  5.506005e+00    4.460486e+03
  5.559123e+00    4.103258e+03
  5.612242e+00    3.817491e+03
  5.665360e+00    3.724921e+03
  5.718478e+00    3.625123e+03
  5.771596e+00    3.561584e+03
  5.824714e+00    3.572750e+03
  5.877832e+00    3.640976e+03
  5.930951e+00    3.756325e+03
  5.984069e+00    3.872194e+03
  6.037187e+00    3.922577e+03
  6.090305e+00    3.887834e+03
  6.143423e+00    3.797895e+03
  6.196541e+00    3.853990e+03
  6.249660e+00    4.036367e+03
  6.302778e+00    4.061636e+03
  6.355896e+00    3.822829e+03
  6.409014e+00    3.688857e+03
  6.462132e+00    3.611751e+03
  6.515250e+00    3.525464e+03
  6.568368e+00    3.511936e+03
  6.621487e+00    3.509333e+03
  6.674605e+00    3.508542e+03
  6.727723e+00    3.554307e+03
  6.780841e+00    3.541443e+03
  6.833959e+00    3.478089e+03
  6.887077e+00    3.413517e+03
  6.940196e+00    3.352293e+03
  6.993314e+00    3.382788e+03
  7.046432e+00    3.416706e+03
  7.099550e+00    3.349028e+03
  7.152668e+00    3.273645e+03
  7.205786e+00    3.223353e+03
  7.258905e+00    3.173394e+03
  7.312023e+00    3.162739e+03
  7.365141e+00    3.186959e+03
  7.418259e+00    3.225840e+03
  7.471377e+00    3.269474e+03
  7.524495e+00    3.323625e+03
  7.577614e+00    3.375261e+03
  7.630732e+00    3.406659e+03
  7.683850e+00    3.529982e+03
  7.736968e+00    3.723924e+03
  7.790086e+00    3.703114e+03
  7.843204e+00    3.477625e+03
  7.896322e+00    3.254877e+03
  7.949441e+00    3.132218e+03
  8.002559e+00    3.088667e+03
  8.055677e+00    3.086054e+03
  8.108795e+00    3.088210e+03
  8.161913e+00    3.097674e+03
  8.215031e+00    3.066393e+03
  8.268150e+00    3.010837e+03
  8.321268e+00    2.969310e+03
  8.374386e+00    2.947610e+03
  8.427504e+00    2.933346e+03
  8.480622e+00    2.907737e+03
  8.533740e+00    2.843634e+03
  8.586859e+00    2.869673e+03
  8.639977e+00    2.867673e+03
  8.693095e+00    2.860291e+03
  8.746213e+00    2.856403e+03
  8.799331e+00    2.839774e+03
  8.852449e+00    2.829960e+03
  8.905568e+00    2.851000e+03
  8.958686e+00    2.864597e+03
  9.011804e+00    2.870748e+03
  9.064922e+00    2.799554e+03
  9.118040e+00    2.727652e+03
  9.171158e+00    2.690946e+03
  9.224276e+00    2.679682e+03
  9.277395e+00    2.651137e+03
  9.330513e+00    2.639279e+03
  9.383631e+00    2.630558e+03
  9.436749e+00    2.620733e+03
  9.489867e+00    2.624266e+03
  9.542985e+00    2.616034e+03
  9.596104e+00    2.588912e+03
  9.649222e+00    2.577883e+03
  9.702340e+00    2.571572e+03
  9.755458e+00    2.566861e+03
  9.808576e+00    2.562254e+03
  9.861694e+00    2.565910e+03
  9.914813e+00    2.573778e+03
  9.967931e+00    2.564333e+03
  1.002105e+01    2.522755e+03
  1.007417e+01    2.474791e+03
  1.012729e+01    2.441190e+03
  1.018040e+01    2.443568e+03
  1.023352e+01    2.432558e+03
  1.028664e+01    2.407830e+03
  1.033976e+01    2.395319e+03
  1.039288e+01    2.412004e+03
  1.044599e+01    2.398754e+03
  1.049911e+01    2.395866e+03
  1.055223e+01    2.377025e+03
  1.060535e+01    2.372657e+03
  1.065847e+01    2.366050e+03
  1.071158e+01    2.360515e+03
  1.076470e+01    2.350606e+03
  1.081782e+01    2.347304e+03
  1.087094e+01    2.335180e+03
  1.092406e+01    2.341502e+03
  1.097718e+01    2.340277e+03
  1.103029e+01    2.337479e+03
  1.108341e+01    2.332670e+03
  1.113653e+01    2.320702e+03
  1.118965e+01    2.308024e+03
  1.124277e+01    2.297548e+03
  1.129588e+01    2.292131e+03
  1.134900e+01    2.281558e+03
  1.140212e+01    2.277466e+03
  1.145524e+01    2.267162e+03
  1.150836e+01    2.270098e+03
  1.156148e+01    2.263346e+03
  1.161459e+01    2.266306e+03
  1.166771e+01    2.260969e+03
  1.172083e+01    2.273767e+03
  1.177395e+01    2.261840e+03
  1.182707e+01    2.256771e+03
  1.188018e+01    2.257343e+03
  1.193330e+01    2.241247e+03
  1.198642e+01    2.221693e+03
  1.203954e+01    2.200536e+03
  1.209266e+01    2.192515e+03
  1.214578e+01    2.180803e+03
  1.219889e+01    2.182055e+03
  1.225201e+01    2.180378e+03
  1.230513e+01    2.175996e+03
  1.235825e+01    2.179266e+03
  1.241137e+01    2.168388e+03
  1.246448e+01    2.167423e+03
  1.251760e+01    2.164600e+03
  1.257072e+01    2.160059e+03
  1.262384e+01    2.163818e+03
  1.267696e+01    2.150161e+03
  1.273008e+01    2.134057e+03
  1.278319e+01    2.125437e+03
  1.283631e+01    2.116082e+03
  1.288943e+01    2.111708e+03
  1.294255e+01    2.098828e+03
  1.299567e+01    2.093971e+03
  1.304878e+01    2.086510e+03
  1.310190e+01    2.082072e+03
  1.315502e+01    2.077965e+03
  1.320814e+01    2.050972e+03
  1.326126e+01    2.026003e+03
  1.331437e+01    2.014491e+03
  1.336749e+01    2.005987e+03
  1.342061e+01    1.996061e+03
  1.347373e+01    2.022012e+03
  1.352685e+01    2.024228e+03
  1.357997e+01    2.013450e+03
  1.363308e+01    2.002848e+03
  1.368620e+01    1.993107e+03
  1.373932e+01    1.982808e+03
  1.379244e+01    1.978074e+03
  1.384556e+01    1.970948e+03
  1.389867e+01    1.963623e+03
  1.395179e+01    1.955084e+03
  1.400491e+01    1.952318e+03
  1.405803e+01    1.949316e+03
  1.411115e+01    1.941749e+03
  1.416427e+01    1.932453e+03
  1.421738e+01    1.927986e+03
  1.427050e+01    1.920913e+03
  1.432362e+01    1.921419e+03
  1.437674e+01    1.917879e+03
  1.442986e+01    1.905458e+03
  1.448297e+01    1.897890e+03
  1.453609e+01    1.889915e+03
  1.458921e+01    1.881179e+03
  1.464233e+01    1.878494e+03
  1.469545e+01    1.871654e+03
  1.474857e+01    1.850770e+03
  1.480168e+01    1.862915e+03
  1.485480e+01    1.860449e+03
  1.490792e+01    1.857778e+03
  1.496104e+01    1.848697e+03
  1.501416e+01    1.846009e+03
  1.506727e+01    1.841128e+03
  1.512039e+01    1.838004e+03
  1.517351e+01    1.849696e+03
  1.522663e+01    1.865028e+03
  1.527975e+01    1.859729e+03
  1.533286e+01    1.844182e+03
  1.538598e+01    1.832986e+03
  1.543910e+01    1.824544e+03
  1.549222e+01    1.822519e+03
  1.554534e+01    1.824220e+03
  1.559846e+01    1.820326e+03
  1.565157e+01    1.812939e+03
  1.570469e+01    1.808081e+03
  1.575781e+01    1.803408e+03
  1.581093e+01    1.800128e+03
  1.586405e+01    1.798313e+03
  1.591716e+01    1.792775e+03
  1.597028e+01    1.786869e+03
  1.602340e+01    1.771487e+03
  1.607652e+01    1.761001e+03
  1.612964e+01    1.737257e+03
  1.618276e+01    1.725231e+03
  1.623587e+01    1.726656e+03
  1.628899e+01    1.743089e+03
  1.634211e+01    1.741435e+03
  1.639523e+01    1.735409e+03
  1.644835e+01    1.736988e+03
  1.650146e+01    1.731934e+03
  1.655458e+01    1.728581e+03
  1.660770e+01    1.724062e+03
  1.666082e+01    1.719475e+03
  1.671394e+01    1.720907e+03
  1.676706e+01    1.714916e+03
  1.682017e+01    1.729890e+03
  1.687329e+01    1.717681e+03
  1.692641e+01    1.711376e+03
  1.697953e+01    1.706593e+03
  1.703265e+01    1.702388e+03
  1.708576e+01    1.699478e+03
  1.713888e+01    1.692098e+03
  1.719200e+01    1.691995e+03
  1.724512e+01    1.684820e+03
  1.729824e+01    1.683661e+03
  1.735136e+01    1.678470e+03
  1.740447e+01    1.655750e+03
  1.745759e+01    1.662905e+03
  1.751071e+01    1.664462e+03
  1.756383e+01    1.674204e+03
  1.761695e+01    1.657665e+03
  1.767006e+01    1.655522e+03
  1.772318e+01    1.646080e+03
  1.777630e+01    1.645694e+03
  1.782942e+01    1.637646e+03
  1.788254e+01    1.633057e+03
  1.793565e+01    1.629556e+03
  1.798877e+01    1.628302e+03
  1.804189e+01    1.620445e+03
  1.809501e+01    1.615883e+03
  1.814813e+01    1.612770e+03
  1.820125e+01    1.609397e+03
  1.825436e+01    1.613666e+03
  1.830748e+01    1.607141e+03
  1.836060e+01    1.602659e+03
  1.841372e+01    1.599593e+03
  1.846684e+01    1.593267e+03
  1.851995e+01    1.575974e+03
  1.857307e+01    1.561559e+03
  1.862619e+01    1.551308e+03
  1.867931e+01    1.548192e+03
  1.873243e+01    1.566489e+03
  1.878555e+01    1.568524e+03
  1.883866e+01    1.566756e+03
  1.889178e+01    1.566088e+03
  1.894490e+01    1.578433e+03
  1.899802e+01    1.569845e+03
  1.905114e+01    1.564966e+03
  1.910425e+01    1.559932e+03
  1.915737e+01    1.554806e+03
  1.921049e+01    1.549155e+03
  1.926361e+01    1.546300e+03
  1.931673e+01    1.544270e+03
  1.936985e+01    1.541381e+03
  1.942296e+01    1.539531e+03
  1.947608e+01    1.538761e+03
  1.952920e+01    1.535231e+03
  1.958232e+01    1.535853e+03
  1.963544e+01    1.540616e+03
  1.968855e+01    1.527241e+03
  1.974167e+01    1.514938e+03
  1.979479e+01    1.519466e+03
  1.984791e+01    1.517910e+03
  1.990103e+01    1.516607e+03
  1.995414e+01    1.514843e+03
  2.000726e+01    1.511673e+03
  2.006038e+01    1.508357e+03
  2.011350e+01    1.504350e+03
  2.016662e+01    1.498607e+03
  2.021974e+01    1.500985e+03
  2.027285e+01    1.508197e+03
  2.032597e+01    1.492148e+03
  2.037909e+01    1.487951e+03
  2.043221e+01    1.482189e+03
  2.048533e+01    1.480002e+03
  2.053844e+01    1.479646e+03
  2.059156e+01    1.473667e+03
  2.064468e+01    1.471562e+03
  2.069780e+01    1.451597e+03
  2.075092e+01    1.427407e+03
  2.080404e+01    1.413547e+03
  2.085715e+01    1.433125e+03
  2.091027e+01    1.459839e+03
  2.096339e+01    1.466556e+03
  2.101651e+01    1.470626e+03
  2.106963e+01    1.475393e+03
  2.112274e+01    1.479069e+03
  2.117586e+01    1.479485e+03
  2.122898e+01    1.482210e+03
  2.128210e+01    1.480207e+03
  2.133522e+01    1.480694e+03
  2.138834e+01    1.478537e+03
  2.144145e+01    1.478648e+03
  2.149457e+01    1.478696e+03
  2.154769e+01    1.478544e+03
  2.160081e+01    1.477309e+03
  2.165393e+01    1.477877e+03
  2.170704e+01    1.477785e+03
  2.176016e+01    1.466313e+03
  2.181328e+01    1.475596e+03
  2.186640e+01    1.476878e+03
  2.191952e+01    1.475797e+03
  2.197263e+01    1.473206e+03
  2.202575e+01    1.471064e+03
  2.207887e+01    1.471448e+03
  2.213199e+01    1.470033e+03
  2.218511e+01    1.468071e+03
  2.223823e+01    1.467465e+03
  2.229134e+01    1.465322e+03
  2.234446e+01    1.464844e+03
  2.239758e+01    1.463142e+03
  2.245070e+01    1.461285e+03
  2.250382e+01    1.463675e+03
  2.255693e+01    1.460889e+03
  2.261005e+01    1.442184e+03
  2.266317e+01    1.428566e+03
  2.271629e+01    1.420913e+03
  2.276941e+01    1.409852e+03
  2.282253e+01    1.403567e+03
  2.287564e+01    1.399478e+03
  2.292876e+01    1.393896e+03
  2.298188e+01    1.390868e+03
  2.303500e+01    1.389986e+03
  2.308812e+01    1.385639e+03
  2.314123e+01    1.384620e+03
  2.319435e+01    1.379650e+03
  2.324747e+01    1.372226e+03
  2.330059e+01    1.369793e+03
  2.335371e+01    1.367273e+03
  2.340683e+01    1.363455e+03
  2.345994e+01    1.360331e+03
  2.351306e+01    1.357411e+03
  2.356618e+01    1.352844e+03
  2.361930e+01    1.346840e+03
  2.367242e+01    1.342056e+03
  2.372553e+01    1.334242e+03
  2.377865e+01    1.329885e+03
  2.383177e+01    1.325200e+03
  2.388489e+01    1.320000e+03
  2.393801e+01    1.316593e+03
  2.399113e+01    1.315955e+03
  2.404424e+01    1.314480e+03
  2.409736e+01    1.312194e+03
  2.415048e+01    1.307314e+03
  2.420360e+01    1.304857e+03
  2.425672e+01    1.301191e+03
  2.430983e+01    1.299323e+03
  2.436295e+01    1.296047e+03
  2.441607e+01    1.294101e+03
  2.446919e+01    1.291551e+03
  2.452231e+01    1.288951e+03
  2.457542e+01    1.288402e+03
  2.462854e+01    1.284524e+03
  2.468166e+01    1.286366e+03
  2.473478e+01    1.278892e+03
  2.478790e+01    1.273187e+03
  2.484102e+01    1.267017e+03
  2.489413e+01    1.267639e+03
  2.494725e+01    1.259526e+03
  2.500037e+01    1.257348e+03
  2.505349e+01    1.251239e+03
  2.510661e+01    1.245238e+03
  2.515972e+01    1.245321e+03
  2.521284e+01    1.242155e+03
  2.526596e+01    1.241568e+03
  2.531908e+01    1.234506e+03
  2.537220e+01    1.235070e+03
  2.542532e+01    1.232460e+03
  2.547843e+01    1.227210e+03
  2.553155e+01    1.227185e+03
  2.558467e+01    1.217407e+03
  2.563779e+01    1.208324e+03
  2.569091e+01    1.204187e+03
  2.574402e+01    1.193953e+03
  2.579714e+01    1.189371e+03
  2.585026e+01    1.181102e+03
  2.590338e+01    1.172875e+03
  2.595650e+01    1.171047e+03
  2.600962e+01    1.172552e+03
  2.606273e+01    1.173987e+03
  2.611585e+01    1.170145e+03
  2.616897e+01    1.171261e+03
  2.622209e+01    1.167861e+03
  2.627521e+01    1.164793e+03
  2.632832e+01    1.149642e+03
  2.638144e+01    1.150835e+03
  2.643456e+01    1.145383e+03
  2.648768e+01    1.131892e+03
  2.654080e+01    1.124080e+03
