# == pyFAI calibration ==
# Distance Sample to Detector: 0.2946421923531691 m
# PONI: 2.875e-01, 2.439e-01 m
# Rotations: -0.010990 -0.009181 0.000003 rad
# 
# == Fit2d calibration ==
# Distance Sample-beamCenter: 294.672 mm
# Center: x=1436.809, y=1655.851 pix
# Tilt: 0.820 deg  TiltPlanRot: -39.874 deg
# 
# Detector Pilatus 2M	 PixelSize= 1.720e-04, 1.720e-04 m
#    Detector has a mask: True 
#    Detector has a dark current: False 
#    detector has a flat field: False 
# 
# Wavelength: 2.0732883349524408e-11 m
# Mask applied: from detector
# Dark current applied: False
# Flat field applied: False
# Polarization factor: None
# Normalization factor: 1.0
# --> /gpfs/current/raw/FMue_3/FMue_3_20231024_175355_00001.dat
#        q_A^-1             I 
  3.483473e-02             nan
  8.795289e-02             nan
  1.410711e-01             nan
  1.941892e-01             nan
  2.473074e-01             nan
  3.004255e-01             nan
  3.535437e-01             nan
  4.066619e-01    9.555297e+03
  4.597800e-01    9.118771e+03
  5.128982e-01    8.199264e+03
  5.660163e-01    7.859110e+03
  6.191345e-01    7.888545e+03
  6.722527e-01    8.032447e+03
  7.253708e-01    8.399726e+03
  7.784890e-01    1.355185e+04
  8.316071e-01    2.722692e+04
  8.847253e-01    1.668451e+04
  9.378435e-01    9.394482e+03
  9.909616e-01    9.958536e+03
  1.044080e+00    1.015967e+04
  1.097198e+00    9.962224e+03
  1.150316e+00    1.035084e+04
  1.203434e+00    1.103438e+04
  1.256552e+00    1.204524e+04
  1.309671e+00    1.305603e+04
  1.362789e+00    1.388680e+04
  1.415907e+00    1.458697e+04
  1.469025e+00    1.482505e+04
  1.522143e+00    1.473934e+04
  1.575261e+00    1.428004e+04
  1.628380e+00    1.626768e+04
  1.681498e+00    1.812785e+04
  1.734616e+00    1.273007e+04
  1.787734e+00    1.062815e+04
  1.840852e+00    9.857440e+03
  1.893970e+00    9.326825e+03
  1.947089e+00    9.239168e+03
  2.000207e+00    8.880155e+03
  2.053325e+00    8.160137e+03
  2.106443e+00    7.908399e+03
  2.159561e+00    8.028685e+03
  2.212679e+00    8.204060e+03
  2.265797e+00    8.423668e+03
  2.318916e+00    8.305460e+03
  2.372034e+00    8.802869e+03
  2.425152e+00    1.357432e+04
  2.478270e+00    9.631984e+03
  2.531388e+00    8.145812e+03
  2.584506e+00    8.934717e+03
  2.637625e+00    8.840343e+03
  2.690743e+00    9.152375e+03
  2.743861e+00    1.268350e+04
  2.796979e+00    8.406704e+03
  2.850097e+00    5.897103e+03
  2.903215e+00    5.460224e+03
  2.956334e+00    5.276670e+03
  3.009452e+00    5.376910e+03
  3.062570e+00    6.207014e+03
  3.115688e+00    7.881314e+03
  3.168806e+00    8.901067e+03
  3.221924e+00    1.065622e+04
  3.275043e+00    1.015559e+04
  3.328161e+00    6.326023e+03
  3.381279e+00    6.027963e+03
  3.434397e+00    5.388353e+03
  3.487515e+00    5.075135e+03
  3.540633e+00    5.010049e+03
  3.593751e+00    5.105691e+03
  3.646870e+00    6.304038e+03
  3.699988e+00    5.659833e+03
  3.753106e+00    4.965143e+03
  3.806224e+00    5.125019e+03
  3.859342e+00    5.915125e+03
  3.912460e+00    5.670481e+03
  3.965579e+00    5.176085e+03
  4.018697e+00    5.470423e+03
  4.071815e+00    7.375087e+03
  4.124933e+00    8.175064e+03
  4.178051e+00    8.785752e+03
  4.231169e+00    6.993106e+03
  4.284288e+00    6.430479e+03
  4.337406e+00    7.326697e+03
  4.390524e+00    7.871441e+03
  4.443642e+00    1.031291e+04
  4.496760e+00    1.207132e+04
  4.549878e+00    9.772733e+03
  4.602997e+00    6.333883e+03
  4.656115e+00    5.240460e+03
  4.709233e+00    5.329468e+03
  4.762351e+00    6.054460e+03
  4.815469e+00    5.781002e+03
  4.868587e+00    5.366395e+03
  4.921705e+00    5.801043e+03
  4.974824e+00    5.716627e+03
  5.027942e+00    5.901716e+03
  5.081060e+00    5.806992e+03
  5.134178e+00    5.282978e+03
  5.187296e+00    5.142544e+03
  5.240414e+00    5.367011e+03
  5.293533e+00    4.996684e+03
  5.346651e+00    4.563085e+03
  5.399769e+00    4.334695e+03
  5.452887e+00    4.445137e+03
  5.506005e+00    4.659054e+03
  5.559123e+00    4.137408e+03
  5.612242e+00    3.950081e+03
  5.665360e+00    3.896521e+03
  5.718478e+00    3.577753e+03
  5.771596e+00    3.580247e+03
  5.824714e+00    3.726881e+03
  5.877832e+00    3.702098e+03
  5.930951e+00    3.743363e+03
  5.984069e+00    3.901428e+03
  6.037187e+00    3.808346e+03
  6.090305e+00    3.803249e+03
  6.143423e+00    3.758179e+03
  6.196541e+00    3.735670e+03
  6.249660e+00    4.223867e+03
  6.302778e+00    4.409928e+03
  6.355896e+00    4.014388e+03
  6.409014e+00    4.189191e+03
  6.462132e+00    4.084236e+03
  6.515250e+00    3.931034e+03
  6.568368e+00    3.733686e+03
  6.621487e+00    3.725844e+03
  6.674605e+00    3.700405e+03
  6.727723e+00    3.487219e+03
  6.780841e+00    3.407589e+03
  6.833959e+00    3.482918e+03
  6.887077e+00    3.423476e+03
  6.940196e+00    3.388232e+03
  6.993314e+00    3.488158e+03
  7.046432e+00    3.451337e+03
  7.099550e+00    3.727008e+03
  7.152668e+00    3.826492e+03
  7.205786e+00    3.496818e+03
  7.258905e+00    3.399862e+03
  7.312023e+00    3.256917e+03
  7.365141e+00    3.174217e+03
  7.418259e+00    3.140783e+03
  7.471377e+00    3.144241e+03
  7.524495e+00    3.257119e+03
  7.577614e+00    3.281795e+03
  7.630732e+00    3.335939e+03
  7.683850e+00    3.544562e+03
  7.736968e+00    3.728638e+03
  7.790086e+00    3.793308e+03
  7.843204e+00    3.715114e+03
  7.896322e+00    3.352685e+03
  7.949441e+00    3.097979e+03
  8.002559e+00    3.026173e+03
  8.055677e+00    3.008370e+03
  8.108795e+00    3.030083e+03
  8.161913e+00    3.167602e+03
  8.215031e+00    3.353032e+03
  8.268150e+00    3.195446e+03
  8.321268e+00    3.033135e+03
  8.374386e+00    3.075064e+03
  8.427504e+00    3.022872e+03
  8.480622e+00    2.974079e+03
  8.533740e+00    3.023744e+03
  8.586859e+00    3.086182e+03
  8.639977e+00    3.065609e+03
  8.693095e+00    3.010959e+03
  8.746213e+00    2.969121e+03
  8.799331e+00    2.960487e+03
  8.852449e+00    2.918408e+03
  8.905568e+00    2.886338e+03
  8.958686e+00    2.955522e+03
  9.011804e+00    2.969194e+03
  9.064922e+00    2.912087e+03
  9.118040e+00    2.778537e+03
  9.171158e+00    2.765418e+03
  9.224276e+00    2.803762e+03
  9.277395e+00    2.756249e+03
  9.330513e+00    2.714663e+03
  9.383631e+00    2.713988e+03
  9.436749e+00    2.684915e+03
  9.489867e+00    2.704075e+03
  9.542985e+00    2.719800e+03
  9.596104e+00    2.730548e+03
  9.649222e+00    2.687139e+03
  9.702340e+00    2.645221e+03
  9.755458e+00    2.664315e+03
  9.808576e+00    2.621463e+03
  9.861694e+00    2.607190e+03
  9.914813e+00    2.614508e+03
  9.967931e+00    2.625635e+03
  1.002105e+01    2.611249e+03
  1.007417e+01    2.571806e+03
  1.012729e+01    2.512746e+03
  1.018040e+01    2.502049e+03
  1.023352e+01    2.503333e+03
  1.028664e+01    2.489951e+03
  1.033976e+01    2.512176e+03
  1.039288e+01    2.522126e+03
  1.044599e+01    2.491751e+03
  1.049911e+01    2.498126e+03
  1.055223e+01    2.496369e+03
  1.060535e+01    2.475902e+03
  1.065847e+01    2.456318e+03
  1.071158e+01    2.447399e+03
  1.076470e+01    2.432936e+03
  1.081782e+01    2.459387e+03
  1.087094e+01    2.489424e+03
  1.092406e+01    2.470032e+03
  1.097718e+01    2.454473e+03
  1.103029e+01    2.417124e+03
  1.108341e+01    2.394700e+03
  1.113653e+01    2.389733e+03
  1.118965e+01    2.370443e+03
  1.124277e+01    2.361628e+03
  1.129588e+01    2.356251e+03
  1.134900e+01    2.359822e+03
  1.140212e+01    2.336931e+03
  1.145524e+01    2.307766e+03
  1.150836e+01    2.302262e+03
  1.156148e+01    2.308473e+03
  1.161459e+01    2.328649e+03
  1.166771e+01    2.311245e+03
  1.172083e+01    2.326966e+03
  1.177395e+01    2.319442e+03
  1.182707e+01    2.318385e+03
  1.188018e+01    2.335123e+03
  1.193330e+01    2.330847e+03
  1.198642e+01    2.313251e+03
  1.203954e+01    2.284606e+03
  1.209266e+01    2.269916e+03
  1.214578e+01    2.261048e+03
  1.219889e+01    2.260905e+03
  1.225201e+01    2.268369e+03
  1.230513e+01    2.287369e+03
  1.235825e+01    2.294851e+03
  1.241137e+01    2.269969e+03
  1.246448e+01    2.264583e+03
  1.251760e+01    2.271098e+03
  1.257072e+01    2.271791e+03
  1.262384e+01    2.268075e+03
  1.267696e+01    2.250677e+03
  1.273008e+01    2.244229e+03
  1.278319e+01    2.225011e+03
  1.283631e+01    2.204911e+03
  1.288943e+01    2.195199e+03
  1.294255e+01    2.182382e+03
  1.299567e+01    2.178130e+03
  1.304878e+01    2.169060e+03
  1.310190e+01    2.163703e+03
  1.315502e+01    2.168806e+03
  1.320814e+01    2.145652e+03
  1.326126e+01    2.111972e+03
  1.331437e+01    2.090499e+03
  1.336749e+01    2.077446e+03
  1.342061e+01    2.060345e+03
  1.347373e+01    2.085577e+03
  1.352685e+01    2.090787e+03
  1.357997e+01    2.084266e+03
  1.363308e+01    2.075713e+03
  1.368620e+01    2.064038e+03
  1.373932e+01    2.046863e+03
  1.379244e+01    2.034280e+03
  1.384556e+01    2.028838e+03
  1.389867e+01    2.024513e+03
  1.395179e+01    2.022480e+03
  1.400491e+01    2.021229e+03
  1.405803e+01    2.015426e+03
  1.411115e+01    2.005036e+03
  1.416427e+01    1.999388e+03
  1.421738e+01    2.000486e+03
  1.427050e+01    1.992663e+03
  1.432362e+01    1.994501e+03
  1.437674e+01    1.997277e+03
  1.442986e+01    1.987287e+03
  1.448297e+01    1.978336e+03
  1.453609e+01    1.967851e+03
  1.458921e+01    1.958525e+03
  1.464233e+01    1.952966e+03
  1.469545e+01    1.947561e+03
  1.474857e+01    1.933414e+03
  1.480168e+01    1.950867e+03
  1.485480e+01    1.947913e+03
  1.490792e+01    1.939047e+03
  1.496104e+01    1.927802e+03
  1.501416e+01    1.923190e+03
  1.506727e+01    1.915604e+03
  1.512039e+01    1.912607e+03
  1.517351e+01    1.925476e+03
  1.522663e+01    1.936800e+03
  1.527975e+01    1.933691e+03
  1.533286e+01    1.921097e+03
  1.538598e+01    1.909963e+03
  1.543910e+01    1.895830e+03
  1.549222e+01    1.894278e+03
  1.554534e+01    1.899828e+03
  1.559846e+01    1.895968e+03
  1.565157e+01    1.890369e+03
  1.570469e+01    1.881351e+03
  1.575781e+01    1.876030e+03
  1.581093e+01    1.869580e+03
  1.586405e+01    1.869492e+03
  1.591716e+01    1.863402e+03
  1.597028e+01    1.857347e+03
  1.602340e+01    1.839750e+03
  1.607652e+01    1.825720e+03
  1.612964e+01    1.804046e+03
  1.618276e+01    1.791919e+03
  1.623587e+01    1.793393e+03
  1.628899e+01    1.811390e+03
  1.634211e+01    1.810999e+03
  1.639523e+01    1.806957e+03
  1.644835e+01    1.809619e+03
  1.650146e+01    1.805606e+03
  1.655458e+01    1.805481e+03
  1.660770e+01    1.799903e+03
  1.666082e+01    1.796144e+03
  1.671394e+01    1.792441e+03
  1.676706e+01    1.786593e+03
  1.682017e+01    1.799559e+03
  1.687329e+01    1.789009e+03
  1.692641e+01    1.781557e+03
  1.697953e+01    1.777292e+03
  1.703265e+01    1.774551e+03
  1.708576e+01    1.773583e+03
  1.713888e+01    1.763535e+03
  1.719200e+01    1.761234e+03
  1.724512e+01    1.752961e+03
  1.729824e+01    1.752677e+03
  1.735136e+01    1.747979e+03
  1.740447e+01    1.724142e+03
  1.745759e+01    1.730912e+03
  1.751071e+01    1.730753e+03
  1.756383e+01    1.741379e+03
  1.761695e+01    1.723809e+03
  1.767006e+01    1.720373e+03
  1.772318e+01    1.711894e+03
  1.777630e+01    1.711713e+03
  1.782942e+01    1.703087e+03
  1.788254e+01    1.700365e+03
  1.793565e+01    1.697922e+03
  1.798877e+01    1.693858e+03
  1.804189e+01    1.687496e+03
  1.809501e+01    1.683079e+03
  1.814813e+01    1.677905e+03
  1.820125e+01    1.673872e+03
  1.825436e+01    1.681162e+03
  1.830748e+01    1.673395e+03
  1.836060e+01    1.669848e+03
  1.841372e+01    1.667831e+03
  1.846684e+01    1.662383e+03
  1.851995e+01    1.642770e+03
  1.857307e+01    1.628165e+03
  1.862619e+01    1.616742e+03
  1.867931e+01    1.612575e+03
  1.873243e+01    1.633500e+03
  1.878555e+01    1.636452e+03
  1.883866e+01    1.636029e+03
  1.889178e+01    1.635661e+03
  1.894490e+01    1.647014e+03
  1.899802e+01    1.636970e+03
  1.905114e+01    1.630381e+03
  1.910425e+01    1.626937e+03
  1.915737e+01    1.620611e+03
  1.921049e+01    1.616302e+03
  1.926361e+01    1.612322e+03
  1.931673e+01    1.609872e+03
  1.936985e+01    1.607581e+03
  1.942296e+01    1.603994e+03
  1.947608e+01    1.604304e+03
  1.952920e+01    1.599654e+03
  1.958232e+01    1.601028e+03
  1.963544e+01    1.605905e+03
  1.968855e+01    1.591422e+03
  1.974167e+01    1.577725e+03
  1.979479e+01    1.582675e+03
  1.984791e+01    1.580886e+03
  1.990103e+01    1.579156e+03
  1.995414e+01    1.577227e+03
  2.000726e+01    1.574370e+03
  2.006038e+01    1.569495e+03
  2.011350e+01    1.566419e+03
  2.016662e+01    1.560263e+03
  2.021974e+01    1.563495e+03
  2.027285e+01    1.571089e+03
  2.032597e+01    1.553923e+03
  2.037909e+01    1.549758e+03
  2.043221e+01    1.545466e+03
  2.048533e+01    1.543970e+03
  2.053844e+01    1.544253e+03
  2.059156e+01    1.537957e+03
  2.064468e+01    1.534827e+03
  2.069780e+01    1.514497e+03
  2.075092e+01    1.489843e+03
  2.080404e+01    1.473534e+03
  2.085715e+01    1.493122e+03
  2.091027e+01    1.521732e+03
  2.096339e+01    1.530140e+03
  2.101651e+01    1.535294e+03
  2.106963e+01    1.538096e+03
  2.112274e+01    1.542887e+03
  2.117586e+01    1.543347e+03
  2.122898e+01    1.546948e+03
  2.128210e+01    1.542339e+03
  2.133522e+01    1.543598e+03
  2.138834e+01    1.543435e+03
  2.144145e+01    1.541824e+03
  2.149457e+01    1.543182e+03
  2.154769e+01    1.541327e+03
  2.160081e+01    1.539486e+03
  2.165393e+01    1.542903e+03
  2.170704e+01    1.541407e+03
  2.176016e+01    1.533027e+03
  2.181328e+01    1.540702e+03
  2.186640e+01    1.541718e+03
  2.191952e+01    1.540349e+03
  2.197263e+01    1.537061e+03
  2.202575e+01    1.533521e+03
  2.207887e+01    1.533654e+03
  2.213199e+01    1.531008e+03
  2.218511e+01    1.530190e+03
  2.223823e+01    1.529993e+03
  2.229134e+01    1.526982e+03
  2.234446e+01    1.525109e+03
  2.239758e+01    1.526197e+03
  2.245070e+01    1.523448e+03
  2.250382e+01    1.524286e+03
  2.255693e+01    1.522823e+03
  2.261005e+01    1.503837e+03
  2.266317e+01    1.490579e+03
  2.271629e+01    1.482306e+03
  2.276941e+01    1.471441e+03
  2.282253e+01    1.464517e+03
  2.287564e+01    1.461326e+03
  2.292876e+01    1.453763e+03
  2.298188e+01    1.450741e+03
  2.303500e+01    1.450016e+03
  2.308812e+01    1.447503e+03
  2.314123e+01    1.442476e+03
  2.319435e+01    1.439049e+03
  2.324747e+01    1.432834e+03
  2.330059e+01    1.428991e+03
  2.335371e+01    1.425940e+03
  2.340683e+01    1.419767e+03
  2.345994e+01    1.417820e+03
  2.351306e+01    1.414593e+03
  2.356618e+01    1.411414e+03
  2.361930e+01    1.404880e+03
  2.367242e+01    1.399136e+03
  2.372553e+01    1.393427e+03
  2.377865e+01    1.389044e+03
  2.383177e+01    1.383812e+03
  2.388489e+01    1.378137e+03
  2.393801e+01    1.375544e+03
  2.399113e+01    1.372859e+03
  2.404424e+01    1.371855e+03
  2.409736e+01    1.370098e+03
  2.415048e+01    1.365125e+03
  2.420360e+01    1.361171e+03
  2.425672e+01    1.357932e+03
  2.430983e+01    1.356172e+03
  2.436295e+01    1.352166e+03
  2.441607e+01    1.350500e+03
  2.446919e+01    1.346651e+03
  2.452231e+01    1.347021e+03
  2.457542e+01    1.344404e+03
  2.462854e+01    1.340451e+03
  2.468166e+01    1.341832e+03
  2.473478e+01    1.336118e+03
  2.478790e+01    1.329646e+03
  2.484102e+01    1.325058e+03
  2.489413e+01    1.321446e+03
  2.494725e+01    1.316999e+03
  2.500037e+01    1.312501e+03
  2.505349e+01    1.306339e+03
  2.510661e+01    1.301942e+03
  2.515972e+01    1.299157e+03
  2.521284e+01    1.293631e+03
  2.526596e+01    1.296881e+03
  2.531908e+01    1.292749e+03
  2.537220e+01    1.288509e+03
  2.542532e+01    1.282843e+03
  2.547843e+01    1.281055e+03
  2.553155e+01    1.278558e+03
  2.558467e+01    1.270756e+03
  2.563779e+01    1.260377e+03
  2.569091e+01    1.255268e+03
  2.574402e+01    1.249409e+03
  2.579714e+01    1.241281e+03
  2.585026e+01    1.233226e+03
  2.590338e+01    1.223376e+03
  2.595650e+01    1.226071e+03
  2.600962e+01    1.222862e+03
  2.606273e+01    1.220863e+03
  2.611585e+01    1.219654e+03
  2.616897e+01    1.219991e+03
  2.622209e+01    1.220534e+03
  2.627521e+01    1.210464e+03
  2.632832e+01    1.209185e+03
  2.638144e+01    1.211024e+03
  2.643456e+01    1.204182e+03
  2.648768e+01    1.181300e+03
  2.654080e+01    1.165954e+03
