# == pyFAI calibration ==
# Distance Sample to Detector: 0.2946421923531691 m
# PONI: 2.875e-01, 2.439e-01 m
# Rotations: -0.010990 -0.009181 0.000003 rad
# 
# == Fit2d calibration ==
# Distance Sample-beamCenter: 294.672 mm
# Center: x=1436.809, y=1655.851 pix
# Tilt: 0.820 deg  TiltPlanRot: -39.874 deg
# 
# Detector Pilatus 2M	 PixelSize= 1.720e-04, 1.720e-04 m
#    Detector has a mask: True 
#    Detector has a dark current: False 
#    detector has a flat field: False 
# 
# Wavelength: 2.0732883349524408e-11 m
# Mask applied: from detector
# Dark current applied: False
# Flat field applied: False
# Polarization factor: None
# Normalization factor: 1.0
# --> /gpfs/current/raw/FMue_3/FMue_3_20231024_175355_00160.dat
#        q_A^-1             I 
  3.483473e-02             nan
  8.795289e-02             nan
  1.410711e-01             nan
  1.941892e-01             nan
  2.473074e-01             nan
  3.004255e-01             nan
  3.535437e-01             nan
  4.066619e-01    1.189566e+04
  4.597800e-01    1.091413e+04
  5.128982e-01    9.245355e+03
  5.660163e-01    8.378400e+03
  6.191345e-01    8.037580e+03
  6.722527e-01    7.903954e+03
  7.253708e-01    7.940815e+03
  7.784890e-01    7.973554e+03
  8.316071e-01    8.128105e+03
  8.847253e-01    8.232508e+03
  9.378435e-01    8.404582e+03
  9.909616e-01    8.620213e+03
  1.044080e+00    8.921432e+03
  1.097198e+00    9.350877e+03
  1.150316e+00    9.949349e+03
  1.203434e+00    1.066866e+04
  1.256552e+00    1.155523e+04
  1.309671e+00    1.271065e+04
  1.362789e+00    1.378452e+04
  1.415907e+00    1.427156e+04
  1.469025e+00    1.435459e+04
  1.522143e+00    1.420533e+04
  1.575261e+00    1.363917e+04
  1.628380e+00    1.288244e+04
  1.681498e+00    1.195679e+04
  1.734616e+00    1.101485e+04
  1.787734e+00    1.017578e+04
  1.840852e+00    9.462912e+03
  1.893970e+00    8.887634e+03
  1.947089e+00    8.480567e+03
  2.000207e+00    8.176839e+03
  2.053325e+00    8.080336e+03
  2.106443e+00    8.495417e+03
  2.159561e+00    9.362613e+03
  2.212679e+00    9.636133e+03
  2.265797e+00    9.307521e+03
  2.318916e+00    8.614521e+03
  2.372034e+00    7.913457e+03
  2.425152e+00    8.168035e+03
  2.478270e+00    9.562603e+03
  2.531388e+00    1.246714e+04
  2.584506e+00    1.345212e+04
  2.637625e+00    1.070493e+04
  2.690743e+00    8.588669e+03
  2.743861e+00    7.714560e+03
  2.796979e+00    6.435652e+03
  2.850097e+00    5.539948e+03
  2.903215e+00    5.233580e+03
  2.956334e+00    5.175857e+03
  3.009452e+00    5.524109e+03
  3.062570e+00    6.950039e+03
  3.115688e+00    9.239579e+03
  3.168806e+00    9.088354e+03
  3.221924e+00    7.330802e+03
  3.275043e+00    5.772274e+03
  3.328161e+00    4.901909e+03
  3.381279e+00    4.666974e+03
  3.434397e+00    4.672705e+03
  3.487515e+00    4.753033e+03
  3.540633e+00    4.675333e+03
  3.593751e+00    4.595736e+03
  3.646870e+00    4.657261e+03
  3.699988e+00    4.816742e+03
  3.753106e+00    5.079221e+03
  3.806224e+00    5.301219e+03
  3.859342e+00    5.384327e+03
  3.912460e+00    5.642827e+03
  3.965579e+00    6.370803e+03
  4.018697e+00    7.203043e+03
  4.071815e+00    7.338852e+03
  4.124933e+00    6.833388e+03
  4.178051e+00    6.401682e+03
  4.231169e+00    6.244137e+03
  4.284288e+00    6.594694e+03
  4.337406e+00    8.066650e+03
  4.390524e+00    1.017585e+04
  4.443642e+00    1.199383e+04
  4.496760e+00    1.228842e+04
  4.549878e+00    8.602724e+03
  4.602997e+00    5.934125e+03
  4.656115e+00    5.289165e+03
  4.709233e+00    5.074062e+03
  4.762351e+00    5.016770e+03
  4.815469e+00    5.064319e+03
  4.868587e+00    5.176628e+03
  4.921705e+00    5.254726e+03
  4.974824e+00    5.346206e+03
  5.027942e+00    5.467539e+03
  5.081060e+00    5.628564e+03
  5.134178e+00    5.471118e+03
  5.187296e+00    5.071360e+03
  5.240414e+00    4.694638e+03
  5.293533e+00    4.477244e+03
  5.346651e+00    4.376414e+03
  5.399769e+00    4.304342e+03
  5.452887e+00    4.279609e+03
  5.506005e+00    4.151858e+03
  5.559123e+00    3.793544e+03
  5.612242e+00    3.613854e+03
  5.665360e+00    3.576377e+03
  5.718478e+00    3.549783e+03
  5.771596e+00    3.590940e+03
  5.824714e+00    3.679099e+03
  5.877832e+00    3.840273e+03
  5.930951e+00    4.069843e+03
  5.984069e+00    4.124977e+03
  6.037187e+00    3.965806e+03
  6.090305e+00    3.791073e+03
  6.143423e+00    3.739104e+03
  6.196541e+00    3.873409e+03
  6.249660e+00    4.010362e+03
  6.302778e+00    3.895763e+03
  6.355896e+00    3.629878e+03
  6.409014e+00    3.529809e+03
  6.462132e+00    3.466191e+03
  6.515250e+00    3.416706e+03
  6.568368e+00    3.438292e+03
  6.621487e+00    3.498514e+03
  6.674605e+00    3.596516e+03
  6.727723e+00    3.648288e+03
  6.780841e+00    3.522768e+03
  6.833959e+00    3.348623e+03
  6.887077e+00    3.248999e+03
  6.940196e+00    3.216229e+03
  6.993314e+00    3.248875e+03
  7.046432e+00    3.251023e+03
  7.099550e+00    3.180688e+03
  7.152668e+00    3.116239e+03
  7.205786e+00    3.069230e+03
  7.258905e+00    3.050437e+03
  7.312023e+00    3.105865e+03
  7.365141e+00    3.197462e+03
  7.418259e+00    3.248622e+03
  7.471377e+00    3.259869e+03
  7.524495e+00    3.315945e+03
  7.577614e+00    3.440090e+03
  7.630732e+00    3.493313e+03
  7.683850e+00    3.539710e+03
  7.736968e+00    3.614933e+03
  7.790086e+00    3.513376e+03
  7.843204e+00    3.331777e+03
  7.896322e+00    3.199958e+03
  7.949441e+00    3.153545e+03
  8.002559e+00    3.158396e+03
  8.055677e+00    3.128340e+03
  8.108795e+00    3.069490e+03
  8.161913e+00    3.024375e+03
  8.215031e+00    2.972934e+03
  8.268150e+00    2.928535e+03
  8.321268e+00    2.891567e+03
  8.374386e+00    2.868362e+03
  8.427504e+00    2.851572e+03
  8.480622e+00    2.838035e+03
  8.533740e+00    2.794582e+03
  8.586859e+00    2.826145e+03
  8.639977e+00    2.815052e+03
  8.693095e+00    2.804969e+03
  8.746213e+00    2.810073e+03
  8.799331e+00    2.801201e+03
  8.852449e+00    2.783982e+03
  8.905568e+00    2.788141e+03
  8.958686e+00    2.785177e+03
  9.011804e+00    2.779144e+03
  9.064922e+00    2.734046e+03
  9.118040e+00    2.699120e+03
  9.171158e+00    2.679118e+03
  9.224276e+00    2.644005e+03
  9.277395e+00    2.597654e+03
  9.330513e+00    2.567296e+03
  9.383631e+00    2.542778e+03
  9.436749e+00    2.532015e+03
  9.489867e+00    2.541766e+03
  9.542985e+00    2.548873e+03
  9.596104e+00    2.544506e+03
  9.649222e+00    2.553512e+03
  9.702340e+00    2.546878e+03
  9.755458e+00    2.532216e+03
  9.808576e+00    2.526855e+03
  9.861694e+00    2.528179e+03
  9.914813e+00    2.516263e+03
  9.967931e+00    2.493733e+03
  1.002105e+01    2.463484e+03
  1.007417e+01    2.440948e+03
  1.012729e+01    2.420240e+03
  1.018040e+01    2.405182e+03
  1.023352e+01    2.372274e+03
  1.028664e+01    2.337819e+03
  1.033976e+01    2.320690e+03
  1.039288e+01    2.344270e+03
  1.044599e+01    2.332358e+03
  1.049911e+01    2.332394e+03
  1.055223e+01    2.322469e+03
  1.060535e+01    2.323394e+03
  1.065847e+01    2.313958e+03
  1.071158e+01    2.304497e+03
  1.076470e+01    2.293917e+03
  1.081782e+01    2.291809e+03
  1.087094e+01    2.282339e+03
  1.092406e+01    2.293607e+03
  1.097718e+01    2.298683e+03
  1.103029e+01    2.297836e+03
  1.108341e+01    2.287179e+03
  1.113653e+01    2.270816e+03
  1.118965e+01    2.251884e+03
  1.124277e+01    2.236429e+03
  1.129588e+01    2.231590e+03
  1.134900e+01    2.224455e+03
  1.140212e+01    2.231698e+03
  1.145524e+01    2.232119e+03
  1.150836e+01    2.241750e+03
  1.156148e+01    2.239377e+03
  1.161459e+01    2.241529e+03
  1.166771e+01    2.225778e+03
  1.172083e+01    2.228065e+03
  1.177395e+01    2.208650e+03
  1.182707e+01    2.199203e+03
  1.188018e+01    2.200321e+03
  1.193330e+01    2.185931e+03
  1.198642e+01    2.166708e+03
  1.203954e+01    2.148018e+03
  1.209266e+01    2.142871e+03
  1.214578e+01    2.135681e+03
  1.219889e+01    2.141161e+03
  1.225201e+01    2.142199e+03
  1.230513e+01    2.136864e+03
  1.235825e+01    2.133927e+03
  1.241137e+01    2.117932e+03
  1.246448e+01    2.115379e+03
  1.251760e+01    2.111030e+03
  1.257072e+01    2.107311e+03
  1.262384e+01    2.112682e+03
  1.267696e+01    2.098698e+03
  1.273008e+01    2.083259e+03
  1.278319e+01    2.074682e+03
  1.283631e+01    2.064820e+03
  1.288943e+01    2.057523e+03
  1.294255e+01    2.047020e+03
  1.299567e+01    2.043226e+03
  1.304878e+01    2.037268e+03
  1.310190e+01    2.032248e+03
  1.315502e+01    2.030932e+03
  1.320814e+01    2.007981e+03
  1.326126e+01    1.984740e+03
  1.331437e+01    1.976271e+03
  1.336749e+01    1.969971e+03
  1.342061e+01    1.956693e+03
  1.347373e+01    1.979288e+03
  1.352685e+01    1.979511e+03
  1.357997e+01    1.964997e+03
  1.363308e+01    1.955520e+03
  1.368620e+01    1.948469e+03
  1.373932e+01    1.938828e+03
  1.379244e+01    1.934805e+03
  1.384556e+01    1.926714e+03
  1.389867e+01    1.919745e+03
  1.395179e+01    1.909878e+03
  1.400491e+01    1.907034e+03
  1.405803e+01    1.904043e+03
  1.411115e+01    1.897604e+03
  1.416427e+01    1.886088e+03
  1.421738e+01    1.883675e+03
  1.427050e+01    1.874648e+03
  1.432362e+01    1.875262e+03
  1.437674e+01    1.873147e+03
  1.442986e+01    1.860738e+03
  1.448297e+01    1.855997e+03
  1.453609e+01    1.849432e+03
  1.458921e+01    1.840149e+03
  1.464233e+01    1.835313e+03
  1.469545e+01    1.828482e+03
  1.474857e+01    1.810074e+03
  1.480168e+01    1.820815e+03
  1.485480e+01    1.816975e+03
  1.490792e+01    1.811770e+03
  1.496104e+01    1.804376e+03
  1.501416e+01    1.802625e+03
  1.506727e+01    1.798677e+03
  1.512039e+01    1.795443e+03
  1.517351e+01    1.806440e+03
  1.522663e+01    1.819804e+03
  1.527975e+01    1.817675e+03
  1.533286e+01    1.802368e+03
  1.538598e+01    1.792873e+03
  1.543910e+01    1.785148e+03
  1.549222e+01    1.780937e+03
  1.554534e+01    1.781587e+03
  1.559846e+01    1.777666e+03
  1.565157e+01    1.770500e+03
  1.570469e+01    1.765638e+03
  1.575781e+01    1.762293e+03
  1.581093e+01    1.760385e+03
  1.586405e+01    1.756776e+03
  1.591716e+01    1.750566e+03
  1.597028e+01    1.743564e+03
  1.602340e+01    1.729487e+03
  1.607652e+01    1.718964e+03
  1.612964e+01    1.695608e+03
  1.618276e+01    1.682578e+03
  1.623587e+01    1.685452e+03
  1.628899e+01    1.700305e+03
  1.634211e+01    1.699816e+03
  1.639523e+01    1.694933e+03
  1.644835e+01    1.696254e+03
  1.650146e+01    1.690598e+03
  1.655458e+01    1.688483e+03
  1.660770e+01    1.683638e+03
  1.666082e+01    1.679286e+03
  1.671394e+01    1.680116e+03
  1.676706e+01    1.672894e+03
  1.682017e+01    1.686830e+03
  1.687329e+01    1.676353e+03
  1.692641e+01    1.670022e+03
  1.697953e+01    1.665893e+03
  1.703265e+01    1.661790e+03
  1.708576e+01    1.660435e+03
  1.713888e+01    1.653031e+03
  1.719200e+01    1.650518e+03
  1.724512e+01    1.642099e+03
  1.729824e+01    1.644078e+03
  1.735136e+01    1.637032e+03
  1.740447e+01    1.614046e+03
  1.745759e+01    1.623230e+03
  1.751071e+01    1.623457e+03
  1.756383e+01    1.635344e+03
  1.761695e+01    1.618001e+03
  1.767006e+01    1.616940e+03
  1.772318e+01    1.607258e+03
  1.777630e+01    1.606582e+03
  1.782942e+01    1.598042e+03
  1.788254e+01    1.595337e+03
  1.793565e+01    1.591845e+03
  1.798877e+01    1.589335e+03
  1.804189e+01    1.583594e+03
  1.809501e+01    1.578163e+03
  1.814813e+01    1.575296e+03
  1.820125e+01    1.569522e+03
  1.825436e+01    1.575256e+03
  1.830748e+01    1.568601e+03
  1.836060e+01    1.564539e+03
  1.841372e+01    1.562275e+03
  1.846684e+01    1.555748e+03
  1.851995e+01    1.537067e+03
  1.857307e+01    1.523027e+03
  1.862619e+01    1.513875e+03
  1.867931e+01    1.510969e+03
  1.873243e+01    1.527725e+03
  1.878555e+01    1.530503e+03
  1.883866e+01    1.530497e+03
  1.889178e+01    1.529641e+03
  1.894490e+01    1.540880e+03
  1.899802e+01    1.530880e+03
  1.905114e+01    1.527034e+03
  1.910425e+01    1.520949e+03
  1.915737e+01    1.518173e+03
  1.921049e+01    1.512975e+03
  1.926361e+01    1.508926e+03
  1.931673e+01    1.505997e+03
  1.936985e+01    1.503640e+03
  1.942296e+01    1.501053e+03
  1.947608e+01    1.500327e+03
  1.952920e+01    1.496639e+03
  1.958232e+01    1.497575e+03
  1.963544e+01    1.502903e+03
  1.968855e+01    1.488423e+03
  1.974167e+01    1.477632e+03
  1.979479e+01    1.481208e+03
  1.984791e+01    1.479686e+03
  1.990103e+01    1.478866e+03
  1.995414e+01    1.475985e+03
  2.000726e+01    1.472392e+03
  2.006038e+01    1.469692e+03
  2.011350e+01    1.465525e+03
  2.016662e+01    1.458201e+03
  2.021974e+01    1.462281e+03
  2.027285e+01    1.468090e+03
  2.032597e+01    1.452126e+03
  2.037909e+01    1.448880e+03
  2.043221e+01    1.443372e+03
  2.048533e+01    1.441365e+03
  2.053844e+01    1.442193e+03
  2.059156e+01    1.436373e+03
  2.064468e+01    1.433929e+03
  2.069780e+01    1.413911e+03
  2.075092e+01    1.390672e+03
  2.080404e+01    1.375391e+03
  2.085715e+01    1.394765e+03
  2.091027e+01    1.420426e+03
  2.096339e+01    1.427868e+03
  2.101651e+01    1.433420e+03
  2.106963e+01    1.436853e+03
  2.112274e+01    1.440405e+03
  2.117586e+01    1.440951e+03
  2.122898e+01    1.444824e+03
  2.128210e+01    1.441243e+03
  2.133522e+01    1.442840e+03
  2.138834e+01    1.440751e+03
  2.144145e+01    1.440254e+03
  2.149457e+01    1.441295e+03
  2.154769e+01    1.440631e+03
  2.160081e+01    1.438463e+03
  2.165393e+01    1.440471e+03
  2.170704e+01    1.440966e+03
  2.176016e+01    1.430562e+03
  2.181328e+01    1.438924e+03
  2.186640e+01    1.439806e+03
  2.191952e+01    1.439154e+03
  2.197263e+01    1.436449e+03
  2.202575e+01    1.434457e+03
  2.207887e+01    1.432792e+03
  2.213199e+01    1.432126e+03
  2.218511e+01    1.430843e+03
  2.223823e+01    1.429852e+03
  2.229134e+01    1.428791e+03
  2.234446e+01    1.428582e+03
  2.239758e+01    1.427735e+03
  2.245070e+01    1.424920e+03
  2.250382e+01    1.427052e+03
  2.255693e+01    1.423090e+03
  2.261005e+01    1.405397e+03
  2.266317e+01    1.392243e+03
  2.271629e+01    1.383679e+03
  2.276941e+01    1.373758e+03
  2.282253e+01    1.367805e+03
  2.287564e+01    1.365012e+03
  2.292876e+01    1.357684e+03
  2.298188e+01    1.355381e+03
  2.303500e+01    1.353945e+03
  2.308812e+01    1.350746e+03
  2.314123e+01    1.346926e+03
  2.319435e+01    1.342578e+03
  2.324747e+01    1.336105e+03
  2.330059e+01    1.334641e+03
  2.335371e+01    1.330834e+03
  2.340683e+01    1.325899e+03
  2.345994e+01    1.322454e+03
  2.351306e+01    1.321493e+03
  2.356618e+01    1.315239e+03
  2.361930e+01    1.310161e+03
  2.367242e+01    1.305091e+03
  2.372553e+01    1.298690e+03
  2.377865e+01    1.295510e+03
  2.383177e+01    1.287913e+03
  2.388489e+01    1.285178e+03
  2.393801e+01    1.281097e+03
  2.399113e+01    1.280366e+03
  2.404424e+01    1.279320e+03
  2.409736e+01    1.278524e+03
  2.415048e+01    1.274620e+03
  2.420360e+01    1.273130e+03
  2.425672e+01    1.268346e+03
  2.430983e+01    1.264010e+03
  2.436295e+01    1.262970e+03
  2.441607e+01    1.262339e+03
  2.446919e+01    1.259066e+03
  2.452231e+01    1.258007e+03
  2.457542e+01    1.255549e+03
  2.462854e+01    1.253233e+03
  2.468166e+01    1.252458e+03
  2.473478e+01    1.244526e+03
  2.478790e+01    1.240760e+03
  2.484102e+01    1.236848e+03
  2.489413e+01    1.231674e+03
  2.494725e+01    1.228846e+03
  2.500037e+01    1.222041e+03
  2.505349e+01    1.218656e+03
  2.510661e+01    1.211520e+03
  2.515972e+01    1.209965e+03
  2.521284e+01    1.210629e+03
  2.526596e+01    1.210097e+03
  2.531908e+01    1.204453e+03
  2.537220e+01    1.203249e+03
  2.542532e+01    1.200286e+03
  2.547843e+01    1.198849e+03
  2.553155e+01    1.194791e+03
  2.558467e+01    1.190333e+03
  2.563779e+01    1.178240e+03
  2.569091e+01    1.173073e+03
  2.574402e+01    1.164200e+03
  2.579714e+01    1.158061e+03
  2.585026e+01    1.152551e+03
  2.590338e+01    1.145253e+03
  2.595650e+01    1.143769e+03
  2.600962e+01    1.137885e+03
  2.606273e+01    1.143442e+03
  2.611585e+01    1.139119e+03
  2.616897e+01    1.140121e+03
  2.622209e+01    1.141175e+03
  2.627521e+01    1.134299e+03
  2.632832e+01    1.125200e+03
  2.638144e+01    1.119726e+03
  2.643456e+01    1.122139e+03
  2.648768e+01    1.103754e+03
  2.654080e+01    1.086858e+03
