# == pyFAI calibration ==
# Distance Sample to Detector: 0.2946421923531691 m
# PONI: 2.875e-01, 2.439e-01 m
# Rotations: -0.010990 -0.009181 0.000003 rad
# 
# == Fit2d calibration ==
# Distance Sample-beamCenter: 294.672 mm
# Center: x=1436.809, y=1655.851 pix
# Tilt: 0.820 deg  TiltPlanRot: -39.874 deg
# 
# Detector Pilatus 2M	 PixelSize= 1.720e-04, 1.720e-04 m
#    Detector has a mask: True 
#    Detector has a dark current: False 
#    detector has a flat field: False 
# 
# Wavelength: 2.0732883349524408e-11 m
# Mask applied: from detector
# Dark current applied: False
# Flat field applied: False
# Polarization factor: None
# Normalization factor: 1.0
# --> /gpfs/current/raw/FMue_3/FMue_3_20231024_175355_00103.dat
#        q_A^-1             I 
  3.483473e-02             nan
  8.795289e-02             nan
  1.410711e-01             nan
  1.941892e-01             nan
  2.473074e-01             nan
  3.004255e-01             nan
  3.535437e-01             nan
  4.066619e-01    1.342129e+04
  4.597800e-01    1.221621e+04
  5.128982e-01    1.030237e+04
  5.660163e-01    9.230572e+03
  6.191345e-01    8.747561e+03
  6.722527e-01    8.518122e+03
  7.253708e-01    8.482332e+03
  7.784890e-01    8.487982e+03
  8.316071e-01    8.622666e+03
  8.847253e-01    8.806940e+03
  9.378435e-01    9.242110e+03
  9.909616e-01    9.948789e+03
  1.044080e+00    1.007442e+04
  1.097198e+00    9.896893e+03
  1.150316e+00    1.034318e+04
  1.203434e+00    1.123878e+04
  1.256552e+00    1.203003e+04
  1.309671e+00    1.293650e+04
  1.362789e+00    1.398204e+04
  1.415907e+00    1.450948e+04
  1.469025e+00    1.459709e+04
  1.522143e+00    1.443042e+04
  1.575261e+00    1.381513e+04
  1.628380e+00    1.305526e+04
  1.681498e+00    1.212427e+04
  1.734616e+00    1.116693e+04
  1.787734e+00    1.033692e+04
  1.840852e+00    9.639801e+03
  1.893970e+00    9.160082e+03
  1.947089e+00    9.095456e+03
  2.000207e+00    8.820420e+03
  2.053325e+00    8.321601e+03
  2.106443e+00    8.380170e+03
  2.159561e+00    8.819904e+03
  2.212679e+00    9.085991e+03
  2.265797e+00    9.167717e+03
  2.318916e+00    8.746346e+03
  2.372034e+00    8.076354e+03
  2.425152e+00    8.303979e+03
  2.478270e+00    9.265924e+03
  2.531388e+00    1.102744e+04
  2.584506e+00    1.198715e+04
  2.637625e+00    1.090692e+04
  2.690743e+00    9.324654e+03
  2.743861e+00    8.172815e+03
  2.796979e+00    6.722241e+03
  2.850097e+00    5.726313e+03
  2.903215e+00    5.383769e+03
  2.956334e+00    5.318833e+03
  3.009452e+00    5.610408e+03
  3.062570e+00    6.763326e+03
  3.115688e+00    9.073135e+03
  3.168806e+00    9.408348e+03
  3.221924e+00    7.680882e+03
  3.275043e+00    6.115373e+03
  3.328161e+00    5.445406e+03
  3.381279e+00    5.480102e+03
  3.434397e+00    5.197559e+03
  3.487515e+00    4.954925e+03
  3.540633e+00    4.874688e+03
  3.593751e+00    4.727895e+03
  3.646870e+00    4.739263e+03
  3.699988e+00    4.881222e+03
  3.753106e+00    5.106140e+03
  3.806224e+00    5.271461e+03
  3.859342e+00    5.387318e+03
  3.912460e+00    5.623973e+03
  3.965579e+00    6.055278e+03
  4.018697e+00    6.623997e+03
  4.071815e+00    7.035720e+03
  4.124933e+00    6.930593e+03
  4.178051e+00    6.583339e+03
  4.231169e+00    6.412861e+03
  4.284288e+00    6.737737e+03
  4.337406e+00    7.845868e+03
  4.390524e+00    9.397493e+03
  4.443642e+00    1.169721e+04
  4.496760e+00    1.279978e+04
  4.549878e+00    9.178394e+03
  4.602997e+00    6.117595e+03
  4.656115e+00    5.390428e+03
  4.709233e+00    5.234391e+03
  4.762351e+00    5.323643e+03
  4.815469e+00    5.282415e+03
  4.868587e+00    5.197781e+03
  4.921705e+00    5.223851e+03
  4.974824e+00    5.314696e+03
  5.027942e+00    5.374542e+03
  5.081060e+00    5.469041e+03
  5.134178e+00    5.402432e+03
  5.187296e+00    5.179242e+03
  5.240414e+00    4.862932e+03
  5.293533e+00    4.643484e+03
  5.346651e+00    4.500538e+03
  5.399769e+00    4.407922e+03
  5.452887e+00    4.389402e+03
  5.506005e+00    4.352241e+03
  5.559123e+00    3.995797e+03
  5.612242e+00    3.729482e+03
  5.665360e+00    3.647914e+03
  5.718478e+00    3.569027e+03
  5.771596e+00    3.543776e+03
  5.824714e+00    3.607099e+03
  5.877832e+00    3.727197e+03
  5.930951e+00    3.894985e+03
  5.984069e+00    4.016446e+03
  6.037187e+00    4.001139e+03
  6.090305e+00    3.883882e+03
  6.143423e+00    3.771879e+03
  6.196541e+00    3.832283e+03
  6.249660e+00    4.011808e+03
  6.302778e+00    3.980535e+03
  6.355896e+00    3.712154e+03
  6.409014e+00    3.572946e+03
  6.462132e+00    3.498497e+03
  6.515250e+00    3.434399e+03
  6.568368e+00    3.446991e+03
  6.621487e+00    3.479263e+03
  6.674605e+00    3.524250e+03
  6.727723e+00    3.591138e+03
  6.780841e+00    3.575765e+03
  6.833959e+00    3.476534e+03
  6.887077e+00    3.377939e+03
  6.940196e+00    3.305750e+03
  6.993314e+00    3.337705e+03
  7.046432e+00    3.352135e+03
  7.099550e+00    3.266101e+03
  7.152668e+00    3.189612e+03
  7.205786e+00    3.137140e+03
  7.258905e+00    3.096469e+03
  7.312023e+00    3.121746e+03
  7.365141e+00    3.169393e+03
  7.418259e+00    3.227235e+03
  7.471377e+00    3.276355e+03
  7.524495e+00    3.336910e+03
  7.577614e+00    3.422060e+03
  7.630732e+00    3.487381e+03
  7.683850e+00    3.595285e+03
  7.736968e+00    3.730281e+03
  7.790086e+00    3.653117e+03
  7.843204e+00    3.430142e+03
  7.896322e+00    3.237257e+03
  7.949441e+00    3.145053e+03
  8.002559e+00    3.125718e+03
  8.055677e+00    3.124999e+03
  8.108795e+00    3.113531e+03
  8.161913e+00    3.090394e+03
  8.215031e+00    3.031599e+03
  8.268150e+00    2.967360e+03
  8.321268e+00    2.921873e+03
  8.374386e+00    2.899110e+03
  8.427504e+00    2.879359e+03
  8.480622e+00    2.858205e+03
  8.533740e+00    2.803155e+03
  8.586859e+00    2.833591e+03
  8.639977e+00    2.833233e+03
  8.693095e+00    2.826494e+03
  8.746213e+00    2.826228e+03
  8.799331e+00    2.817367e+03
  8.852449e+00    2.809531e+03
  8.905568e+00    2.824505e+03
  8.958686e+00    2.830915e+03
  9.011804e+00    2.832502e+03
  9.064922e+00    2.769534e+03
  9.118040e+00    2.708897e+03
  9.171158e+00    2.686419e+03
  9.224276e+00    2.672358e+03
  9.277395e+00    2.639188e+03
  9.330513e+00    2.617005e+03
  9.383631e+00    2.601604e+03
  9.436749e+00    2.587624e+03
  9.489867e+00    2.590602e+03
  9.542985e+00    2.585661e+03
  9.596104e+00    2.567607e+03
  9.649222e+00    2.566338e+03
  9.702340e+00    2.566255e+03
  9.755458e+00    2.563223e+03
  9.808576e+00    2.555530e+03
  9.861694e+00    2.559407e+03
  9.914813e+00    2.562325e+03
  9.967931e+00    2.543765e+03
  1.002105e+01    2.502443e+03
  1.007417e+01    2.459479e+03
  1.012729e+01    2.436019e+03
  1.018040e+01    2.435189e+03
  1.023352e+01    2.419370e+03
  1.028664e+01    2.389014e+03
  1.033976e+01    2.369629e+03
  1.039288e+01    2.382694e+03
  1.044599e+01    2.369356e+03
  1.049911e+01    2.366521e+03
  1.055223e+01    2.347978e+03
  1.060535e+01    2.348025e+03
  1.065847e+01    2.339780e+03
  1.071158e+01    2.335702e+03
  1.076470e+01    2.327787e+03
  1.081782e+01    2.325687e+03
  1.087094e+01    2.313134e+03
  1.092406e+01    2.318527e+03
  1.097718e+01    2.320328e+03
  1.103029e+01    2.321318e+03
  1.108341e+01    2.317982e+03
  1.113653e+01    2.307100e+03
  1.118965e+01    2.290991e+03
  1.124277e+01    2.277675e+03
  1.129588e+01    2.270203e+03
  1.134900e+01    2.259571e+03
  1.140212e+01    2.258051e+03
  1.145524e+01    2.253347e+03
  1.150836e+01    2.259755e+03
  1.156148e+01    2.258510e+03
  1.161459e+01    2.265566e+03
  1.166771e+01    2.256026e+03
  1.172083e+01    2.266174e+03
  1.177395e+01    2.248699e+03
  1.182707e+01    2.239437e+03
  1.188018e+01    2.236191e+03
  1.193330e+01    2.221003e+03
  1.198642e+01    2.201611e+03
  1.203954e+01    2.180848e+03
  1.209266e+01    2.171943e+03
  1.214578e+01    2.160706e+03
  1.219889e+01    2.163786e+03
  1.225201e+01    2.163105e+03
  1.230513e+01    2.157556e+03
  1.235825e+01    2.161767e+03
  1.241137e+01    2.147885e+03
  1.246448e+01    2.145260e+03
  1.251760e+01    2.139552e+03
  1.257072e+01    2.133734e+03
  1.262384e+01    2.138460e+03
  1.267696e+01    2.125796e+03
  1.273008e+01    2.109887e+03
  1.278319e+01    2.102050e+03
  1.283631e+01    2.092480e+03
  1.288943e+01    2.087250e+03
  1.294255e+01    2.075699e+03
  1.299567e+01    2.070376e+03
  1.304878e+01    2.064252e+03
  1.310190e+01    2.061062e+03
  1.315502e+01    2.057894e+03
  1.320814e+01    2.034021e+03
  1.326126e+01    2.010652e+03
  1.331437e+01    2.001273e+03
  1.336749e+01    1.994254e+03
  1.342061e+01    1.982313e+03
  1.347373e+01    2.009467e+03
  1.352685e+01    2.011050e+03
  1.357997e+01    1.999900e+03
  1.363308e+01    1.985853e+03
  1.368620e+01    1.975103e+03
  1.373932e+01    1.966795e+03
  1.379244e+01    1.961367e+03
  1.384556e+01    1.955933e+03
  1.389867e+01    1.948109e+03
  1.395179e+01    1.938484e+03
  1.400491e+01    1.936881e+03
  1.405803e+01    1.935234e+03
  1.411115e+01    1.925944e+03
  1.416427e+01    1.917378e+03
  1.421738e+01    1.911789e+03
  1.427050e+01    1.904760e+03
  1.432362e+01    1.903860e+03
  1.437674e+01    1.901893e+03
  1.442986e+01    1.887530e+03
  1.448297e+01    1.882037e+03
  1.453609e+01    1.874458e+03
  1.458921e+01    1.863841e+03
  1.464233e+01    1.862112e+03
  1.469545e+01    1.855420e+03
  1.474857e+01    1.836540e+03
  1.480168e+01    1.846286e+03
  1.485480e+01    1.842625e+03
  1.490792e+01    1.837405e+03
  1.496104e+01    1.830844e+03
  1.501416e+01    1.828160e+03
  1.506727e+01    1.822638e+03
  1.512039e+01    1.819828e+03
  1.517351e+01    1.832422e+03
  1.522663e+01    1.846891e+03
  1.527975e+01    1.842277e+03
  1.533286e+01    1.827652e+03
  1.538598e+01    1.817317e+03
  1.543910e+01    1.810089e+03
  1.549222e+01    1.806728e+03
  1.554534e+01    1.807364e+03
  1.559846e+01    1.806224e+03
  1.565157e+01    1.797592e+03
  1.570469e+01    1.792484e+03
  1.575781e+01    1.787839e+03
  1.581093e+01    1.786314e+03
  1.586405e+01    1.783508e+03
  1.591716e+01    1.778923e+03
  1.597028e+01    1.771604e+03
  1.602340e+01    1.756856e+03
  1.607652e+01    1.745339e+03
  1.612964e+01    1.722017e+03
  1.618276e+01    1.710798e+03
  1.623587e+01    1.711256e+03
  1.628899e+01    1.728626e+03
  1.634211e+01    1.724883e+03
  1.639523e+01    1.719215e+03
  1.644835e+01    1.720397e+03
  1.650146e+01    1.714161e+03
  1.655458e+01    1.712430e+03
  1.660770e+01    1.709454e+03
  1.666082e+01    1.703701e+03
  1.671394e+01    1.702707e+03
  1.676706e+01    1.700102e+03
  1.682017e+01    1.712914e+03
  1.687329e+01    1.702597e+03
  1.692641e+01    1.695586e+03
  1.697953e+01    1.690954e+03
  1.703265e+01    1.686212e+03
  1.708576e+01    1.685215e+03
  1.713888e+01    1.677710e+03
  1.719200e+01    1.676735e+03
  1.724512e+01    1.668410e+03
  1.729824e+01    1.669241e+03
  1.735136e+01    1.663012e+03
  1.740447e+01    1.639866e+03
  1.745759e+01    1.647224e+03
  1.751071e+01    1.649136e+03
  1.756383e+01    1.661491e+03
  1.761695e+01    1.643352e+03
  1.767006e+01    1.640275e+03
  1.772318e+01    1.631861e+03
  1.777630e+01    1.631115e+03
  1.782942e+01    1.622411e+03
  1.788254e+01    1.618660e+03
  1.793565e+01    1.616307e+03
  1.798877e+01    1.613539e+03
  1.804189e+01    1.607589e+03
  1.809501e+01    1.601770e+03
  1.814813e+01    1.598742e+03
  1.820125e+01    1.594689e+03
  1.825436e+01    1.600652e+03
  1.830748e+01    1.592579e+03
  1.836060e+01    1.587017e+03
  1.841372e+01    1.586239e+03
  1.846684e+01    1.579889e+03
  1.851995e+01    1.560587e+03
  1.857307e+01    1.546085e+03
  1.862619e+01    1.535903e+03
  1.867931e+01    1.533489e+03
  1.873243e+01    1.551754e+03
  1.878555e+01    1.554667e+03
  1.883866e+01    1.553523e+03
  1.889178e+01    1.552734e+03
  1.894490e+01    1.563970e+03
  1.899802e+01    1.555403e+03
  1.905114e+01    1.549821e+03
  1.910425e+01    1.544994e+03
  1.915737e+01    1.539721e+03
  1.921049e+01    1.536542e+03
  1.926361e+01    1.532661e+03
  1.931673e+01    1.530705e+03
  1.936985e+01    1.527706e+03
  1.942296e+01    1.524831e+03
  1.947608e+01    1.525269e+03
  1.952920e+01    1.521180e+03
  1.958232e+01    1.521917e+03
  1.963544e+01    1.528057e+03
  1.968855e+01    1.513087e+03
  1.974167e+01    1.500277e+03
  1.979479e+01    1.506874e+03
  1.984791e+01    1.503356e+03
  1.990103e+01    1.501467e+03
  1.995414e+01    1.500829e+03
  2.000726e+01    1.496439e+03
  2.006038e+01    1.493687e+03
  2.011350e+01    1.490068e+03
  2.016662e+01    1.484764e+03
  2.021974e+01    1.487680e+03
  2.027285e+01    1.493165e+03
  2.032597e+01    1.478132e+03
  2.037909e+01    1.473281e+03
  2.043221e+01    1.469876e+03
  2.048533e+01    1.466180e+03
  2.053844e+01    1.466975e+03
  2.059156e+01    1.460804e+03
  2.064468e+01    1.458121e+03
  2.069780e+01    1.439159e+03
  2.075092e+01    1.413983e+03
  2.080404e+01    1.400065e+03
  2.085715e+01    1.419484e+03
  2.091027e+01    1.446250e+03
  2.096339e+01    1.452437e+03
  2.101651e+01    1.457958e+03
  2.106963e+01    1.461588e+03
  2.112274e+01    1.464886e+03
  2.117586e+01    1.465576e+03
  2.122898e+01    1.468073e+03
  2.128210e+01    1.465784e+03
  2.133522e+01    1.467033e+03
  2.138834e+01    1.465145e+03
  2.144145e+01    1.464062e+03
  2.149457e+01    1.464870e+03
  2.154769e+01    1.462677e+03
  2.160081e+01    1.462726e+03
  2.165393e+01    1.463140e+03
  2.170704e+01    1.463979e+03
  2.176016e+01    1.453320e+03
  2.181328e+01    1.462292e+03
  2.186640e+01    1.463600e+03
  2.191952e+01    1.461910e+03
  2.197263e+01    1.458113e+03
  2.202575e+01    1.457465e+03
  2.207887e+01    1.456812e+03
  2.213199e+01    1.455361e+03
  2.218511e+01    1.453134e+03
  2.223823e+01    1.453517e+03
  2.229134e+01    1.452347e+03
  2.234446e+01    1.450126e+03
  2.239758e+01    1.450039e+03
  2.245070e+01    1.446997e+03
  2.250382e+01    1.449421e+03
  2.255693e+01    1.444807e+03
  2.261005e+01    1.426220e+03
  2.266317e+01    1.416825e+03
  2.271629e+01    1.405567e+03
  2.276941e+01    1.397076e+03
  2.282253e+01    1.388964e+03
  2.287564e+01    1.386088e+03
  2.292876e+01    1.380538e+03
  2.298188e+01    1.377868e+03
  2.303500e+01    1.376502e+03
  2.308812e+01    1.372501e+03
  2.314123e+01    1.372168e+03
  2.319435e+01    1.366263e+03
  2.324747e+01    1.359729e+03
  2.330059e+01    1.355457e+03
  2.335371e+01    1.354167e+03
  2.340683e+01    1.349336e+03
  2.345994e+01    1.346355e+03
  2.351306e+01    1.342706e+03
  2.356618e+01    1.338714e+03
  2.361930e+01    1.331385e+03
  2.367242e+01    1.328176e+03
  2.372553e+01    1.321248e+03
  2.377865e+01    1.317649e+03
  2.383177e+01    1.312196e+03
  2.388489e+01    1.306969e+03
  2.393801e+01    1.303987e+03
  2.399113e+01    1.300921e+03
  2.404424e+01    1.300563e+03
  2.409736e+01    1.297843e+03
  2.415048e+01    1.294152e+03
  2.420360e+01    1.292774e+03
  2.425672e+01    1.290040e+03
  2.430983e+01    1.286149e+03
  2.436295e+01    1.283702e+03
  2.441607e+01    1.281548e+03
  2.446919e+01    1.280551e+03
  2.452231e+01    1.278122e+03
  2.457542e+01    1.276509e+03
  2.462854e+01    1.273524e+03
  2.468166e+01    1.272410e+03
  2.473478e+01    1.268450e+03
  2.478790e+01    1.260056e+03
  2.484102e+01    1.258798e+03
  2.489413e+01    1.252786e+03
  2.494725e+01    1.246979e+03
  2.500037e+01    1.245457e+03
  2.505349e+01    1.238805e+03
  2.510661e+01    1.234714e+03
  2.515972e+01    1.230757e+03
  2.521284e+01    1.229746e+03
  2.526596e+01    1.233474e+03
  2.531908e+01    1.223604e+03
  2.537220e+01    1.221039e+03
  2.542532e+01    1.220124e+03
  2.547843e+01    1.217247e+03
  2.553155e+01    1.212396e+03
  2.558467e+01    1.205465e+03
  2.563779e+01    1.198032e+03
  2.569091e+01    1.191378e+03
  2.574402e+01    1.181628e+03
  2.579714e+01    1.177894e+03
  2.585026e+01    1.170693e+03
  2.590338e+01    1.165964e+03
  2.595650e+01    1.160874e+03
  2.600962e+01    1.159246e+03
  2.606273e+01    1.161080e+03
  2.611585e+01    1.159167e+03
  2.616897e+01    1.158971e+03
  2.622209e+01    1.158857e+03
  2.627521e+01    1.149972e+03
  2.632832e+01    1.144638e+03
  2.638144e+01    1.148098e+03
  2.643456e+01    1.139157e+03
  2.648768e+01    1.119222e+03
  2.654080e+01    1.102697e+03
