# == pyFAI calibration ==
# Distance Sample to Detector: 0.2946421923531691 m
# PONI: 2.875e-01, 2.439e-01 m
# Rotations: -0.010990 -0.009181 0.000003 rad
# 
# == Fit2d calibration ==
# Distance Sample-beamCenter: 294.672 mm
# Center: x=1436.809, y=1655.851 pix
# Tilt: 0.820 deg  TiltPlanRot: -39.874 deg
# 
# Detector Pilatus 2M	 PixelSize= 1.720e-04, 1.720e-04 m
#    Detector has a mask: True 
#    Detector has a dark current: False 
#    detector has a flat field: False 
# 
# Wavelength: 2.0732883349524408e-11 m
# Mask applied: from detector
# Dark current applied: False
# Flat field applied: False
# Polarization factor: None
# Normalization factor: 1.0
# --> /gpfs/current/raw/FMue_3/FMue_3_20231024_175355_00048.dat
#        q_A^-1             I 
  3.483473e-02             nan
  8.795289e-02             nan
  1.410711e-01             nan
  1.941892e-01             nan
  2.473074e-01             nan
  3.004255e-01             nan
  3.535437e-01             nan
  4.066619e-01    1.055627e+04
  4.597800e-01    9.942392e+03
  5.128982e-01    8.814606e+03
  5.660163e-01    8.322295e+03
  6.191345e-01    8.260603e+03
  6.722527e-01    8.359110e+03
  7.253708e-01    8.759222e+03
  7.784890e-01    1.185280e+04
  8.316071e-01    2.337935e+04
  8.847253e-01    1.774615e+04
  9.378435e-01    1.000829e+04
  9.909616e-01    1.014482e+04
  1.044080e+00    1.018486e+04
  1.097198e+00    9.899250e+03
  1.150316e+00    1.024849e+04
  1.203434e+00    1.095953e+04
  1.256552e+00    1.195865e+04
  1.309671e+00    1.271763e+04
  1.362789e+00    1.362421e+04
  1.415907e+00    1.430851e+04
  1.469025e+00    1.454800e+04
  1.522143e+00    1.448943e+04
  1.575261e+00    1.406996e+04
  1.628380e+00    1.466178e+04
  1.681498e+00    1.617712e+04
  1.734616e+00    1.302263e+04
  1.787734e+00    1.058887e+04
  1.840852e+00    9.716665e+03
  1.893970e+00    9.156938e+03
  1.947089e+00    9.048820e+03
  2.000207e+00    8.662721e+03
  2.053325e+00    7.961729e+03
  2.106443e+00    7.742587e+03
  2.159561e+00    7.887295e+03
  2.212679e+00    8.066155e+03
  2.265797e+00    8.301917e+03
  2.318916e+00    8.216003e+03
  2.372034e+00    8.746313e+03
  2.425152e+00    1.234995e+04
  2.478270e+00    9.263904e+03
  2.531388e+00    8.242937e+03
  2.584506e+00    8.834232e+03
  2.637625e+00    8.800411e+03
  2.690743e+00    8.997771e+03
  2.743861e+00    1.155011e+04
  2.796979e+00    8.298229e+03
  2.850097e+00    5.945384e+03
  2.903215e+00    5.481236e+03
  2.956334e+00    5.304483e+03
  3.009452e+00    5.389934e+03
  3.062570e+00    6.201254e+03
  3.115688e+00    7.951406e+03
  3.168806e+00    8.815487e+03
  3.221924e+00    9.249256e+03
  3.275043e+00    9.007559e+03
  3.328161e+00    6.348778e+03
  3.381279e+00    5.976847e+03
  3.434397e+00    5.389361e+03
  3.487515e+00    5.085038e+03
  3.540633e+00    5.017700e+03
  3.593751e+00    5.020477e+03
  3.646870e+00    5.657727e+03
  3.699988e+00    5.552013e+03
  3.753106e+00    5.076216e+03
  3.806224e+00    5.129583e+03
  3.859342e+00    5.540915e+03
  3.912460e+00    5.611642e+03
  3.965579e+00    5.272065e+03
  4.018697e+00    5.574043e+03
  4.071815e+00    7.366866e+03
  4.124933e+00    7.935293e+03
  4.178051e+00    8.232407e+03
  4.231169e+00    6.765317e+03
  4.284288e+00    6.326056e+03
  4.337406e+00    7.080034e+03
  4.390524e+00    7.844771e+03
  4.443642e+00    1.014066e+04
  4.496760e+00    1.183957e+04
  4.549878e+00    9.141820e+03
  4.602997e+00    6.119490e+03
  4.656115e+00    5.263893e+03
  4.709233e+00    5.372082e+03
  4.762351e+00    5.919463e+03
  4.815469e+00    5.631576e+03
  4.868587e+00    5.351485e+03
  4.921705e+00    5.611351e+03
  4.974824e+00    5.488194e+03
  5.027942e+00    5.474462e+03
  5.081060e+00    5.575197e+03
  5.134178e+00    5.247504e+03
  5.187296e+00    5.061954e+03
  5.240414e+00    5.105104e+03
  5.293533e+00    4.815835e+03
  5.346651e+00    4.513939e+03
  5.399769e+00    4.312456e+03
  5.452887e+00    4.370203e+03
  5.506005e+00    4.508479e+03
  5.559123e+00    4.076926e+03
  5.612242e+00    3.842829e+03
  5.665360e+00    3.779233e+03
  5.718478e+00    3.550347e+03
  5.771596e+00    3.486204e+03
  5.824714e+00    3.572872e+03
  5.877832e+00    3.626004e+03
  5.930951e+00    3.683969e+03
  5.984069e+00    3.795090e+03
  6.037187e+00    3.759823e+03
  6.090305e+00    3.738933e+03
  6.143423e+00    3.688554e+03
  6.196541e+00    3.732110e+03
  6.249660e+00    4.181966e+03
  6.302778e+00    4.270769e+03
  6.355896e+00    3.955427e+03
  6.409014e+00    3.995297e+03
  6.462132e+00    3.817719e+03
  6.515250e+00    3.738626e+03
  6.568368e+00    3.637054e+03
  6.621487e+00    3.615827e+03
  6.674605e+00    3.549421e+03
  6.727723e+00    3.447409e+03
  6.780841e+00    3.391774e+03
  6.833959e+00    3.408965e+03
  6.887077e+00    3.367342e+03
  6.940196e+00    3.318053e+03
  6.993314e+00    3.385591e+03
  7.046432e+00    3.416519e+03
  7.099550e+00    3.556528e+03
  7.152668e+00    3.570099e+03
  7.205786e+00    3.374401e+03
  7.258905e+00    3.284360e+03
  7.312023e+00    3.185676e+03
  7.365141e+00    3.122259e+03
  7.418259e+00    3.116295e+03
  7.471377e+00    3.127547e+03
  7.524495e+00    3.195632e+03
  7.577614e+00    3.215281e+03
  7.630732e+00    3.258523e+03
  7.683850e+00    3.436085e+03
  7.736968e+00    3.638602e+03
  7.790086e+00    3.654310e+03
  7.843204e+00    3.483154e+03
  7.896322e+00    3.239666e+03
  7.949441e+00    3.048847e+03
  8.002559e+00    2.987669e+03
  8.055677e+00    2.981844e+03
  8.108795e+00    3.005626e+03
  8.161913e+00    3.104099e+03
  8.215031e+00    3.196301e+03
  8.268150e+00    3.086296e+03
  8.321268e+00    2.986753e+03
  8.374386e+00    2.987668e+03
  8.427504e+00    2.950516e+03
  8.480622e+00    2.939340e+03
  8.533740e+00    2.946519e+03
  8.586859e+00    2.976777e+03
  8.639977e+00    2.963453e+03
  8.693095e+00    2.915326e+03
  8.746213e+00    2.893393e+03
  8.799331e+00    2.878357e+03
  8.852449e+00    2.848092e+03
  8.905568e+00    2.837147e+03
  8.958686e+00    2.874969e+03
  9.011804e+00    2.888137e+03
  9.064922e+00    2.819327e+03
  9.118040e+00    2.713436e+03
  9.171158e+00    2.682131e+03
  9.224276e+00    2.694849e+03
  9.277395e+00    2.667031e+03
  9.330513e+00    2.640616e+03
  9.383631e+00    2.639425e+03
  9.436749e+00    2.636949e+03
  9.489867e+00    2.647374e+03
  9.542985e+00    2.646357e+03
  9.596104e+00    2.624838e+03
  9.649222e+00    2.600895e+03
  9.702340e+00    2.576858e+03
  9.755458e+00    2.569392e+03
  9.808576e+00    2.553239e+03
  9.861694e+00    2.553349e+03
  9.914813e+00    2.560613e+03
  9.967931e+00    2.557103e+03
  1.002105e+01    2.521876e+03
  1.007417e+01    2.478310e+03
  1.012729e+01    2.444305e+03
  1.018040e+01    2.437622e+03
  1.023352e+01    2.430396e+03
  1.028664e+01    2.428732e+03
  1.033976e+01    2.434137e+03
  1.039288e+01    2.448000e+03
  1.044599e+01    2.423988e+03
  1.049911e+01    2.425064e+03
  1.055223e+01    2.406690e+03
  1.060535e+01    2.398755e+03
  1.065847e+01    2.391121e+03
  1.071158e+01    2.381707e+03
  1.076470e+01    2.374104e+03
  1.081782e+01    2.390244e+03
  1.087094e+01    2.395839e+03
  1.092406e+01    2.382959e+03
  1.097718e+01    2.372761e+03
  1.103029e+01    2.349128e+03
  1.108341e+01    2.333687e+03
  1.113653e+01    2.322454e+03
  1.118965e+01    2.307674e+03
  1.124277e+01    2.297178e+03
  1.129588e+01    2.292246e+03
  1.134900e+01    2.283668e+03
  1.140212e+01    2.271926e+03
  1.145524e+01    2.254287e+03
  1.150836e+01    2.252500e+03
  1.156148e+01    2.247849e+03
  1.161459e+01    2.255483e+03
  1.166771e+01    2.248276e+03
  1.172083e+01    2.264649e+03
  1.177395e+01    2.256738e+03
  1.182707e+01    2.260881e+03
  1.188018e+01    2.268291e+03
  1.193330e+01    2.256293e+03
  1.198642e+01    2.239852e+03
  1.203954e+01    2.218344e+03
  1.209266e+01    2.208493e+03
  1.214578e+01    2.199546e+03
  1.219889e+01    2.203950e+03
  1.225201e+01    2.207336e+03
  1.230513e+01    2.210793e+03
  1.235825e+01    2.215121e+03
  1.241137e+01    2.200983e+03
  1.246448e+01    2.203044e+03
  1.251760e+01    2.206639e+03
  1.257072e+01    2.202169e+03
  1.262384e+01    2.201604e+03
  1.267696e+01    2.183792e+03
  1.273008e+01    2.167003e+03
  1.278319e+01    2.155509e+03
  1.283631e+01    2.143505e+03
  1.288943e+01    2.133919e+03
  1.294255e+01    2.118754e+03
  1.299567e+01    2.115356e+03
  1.304878e+01    2.106742e+03
  1.310190e+01    2.102059e+03
  1.315502e+01    2.100647e+03
  1.320814e+01    2.074513e+03
  1.326126e+01    2.043802e+03
  1.331437e+01    2.027971e+03
  1.336749e+01    2.015614e+03
  1.342061e+01    2.000334e+03
  1.347373e+01    2.027161e+03
  1.352685e+01    2.030370e+03
  1.357997e+01    2.021396e+03
  1.363308e+01    2.010369e+03
  1.368620e+01    1.999676e+03
  1.373932e+01    1.988051e+03
  1.379244e+01    1.983343e+03
  1.384556e+01    1.975191e+03
  1.389867e+01    1.969724e+03
  1.395179e+01    1.963054e+03
  1.400491e+01    1.961527e+03
  1.405803e+01    1.958146e+03
  1.411115e+01    1.950352e+03
  1.416427e+01    1.942829e+03
  1.421738e+01    1.941806e+03
  1.427050e+01    1.934119e+03
  1.432362e+01    1.937263e+03
  1.437674e+01    1.937257e+03
  1.442986e+01    1.926307e+03
  1.448297e+01    1.918055e+03
  1.453609e+01    1.909436e+03
  1.458921e+01    1.899809e+03
  1.464233e+01    1.897446e+03
  1.469545e+01    1.890432e+03
  1.474857e+01    1.874780e+03
  1.480168e+01    1.889709e+03
  1.485480e+01    1.884987e+03
  1.490792e+01    1.879040e+03
  1.496104e+01    1.869420e+03
  1.501416e+01    1.867587e+03
  1.506727e+01    1.861896e+03
  1.512039e+01    1.858373e+03
  1.517351e+01    1.870950e+03
  1.522663e+01    1.884033e+03
  1.527975e+01    1.879976e+03
  1.533286e+01    1.862343e+03
  1.538598e+01    1.851724e+03
  1.543910e+01    1.842418e+03
  1.549222e+01    1.840364e+03
  1.554534e+01    1.842523e+03
  1.559846e+01    1.840373e+03
  1.565157e+01    1.831927e+03
  1.570469e+01    1.826367e+03
  1.575781e+01    1.821174e+03
  1.581093e+01    1.816878e+03
  1.586405e+01    1.815253e+03
  1.591716e+01    1.808631e+03
  1.597028e+01    1.802111e+03
  1.602340e+01    1.788000e+03
  1.607652e+01    1.775215e+03
  1.612964e+01    1.751210e+03
  1.618276e+01    1.741483e+03
  1.623587e+01    1.743323e+03
  1.628899e+01    1.761359e+03
  1.634211e+01    1.759615e+03
  1.639523e+01    1.754126e+03
  1.644835e+01    1.756364e+03
  1.650146e+01    1.750665e+03
  1.655458e+01    1.749462e+03
  1.660770e+01    1.744891e+03
  1.666082e+01    1.740097e+03
  1.671394e+01    1.738647e+03
  1.676706e+01    1.732589e+03
  1.682017e+01    1.745746e+03
  1.687329e+01    1.735526e+03
  1.692641e+01    1.729760e+03
  1.697953e+01    1.724351e+03
  1.703265e+01    1.719913e+03
  1.708576e+01    1.718632e+03
  1.713888e+01    1.708621e+03
  1.719200e+01    1.709203e+03
  1.724512e+01    1.699942e+03
  1.729824e+01    1.700559e+03
  1.735136e+01    1.695080e+03
  1.740447e+01    1.671375e+03
  1.745759e+01    1.678988e+03
  1.751071e+01    1.680228e+03
  1.756383e+01    1.691063e+03
  1.761695e+01    1.674556e+03
  1.767006e+01    1.670767e+03
  1.772318e+01    1.662526e+03
  1.777630e+01    1.661613e+03
  1.782942e+01    1.652794e+03
  1.788254e+01    1.648956e+03
  1.793565e+01    1.646125e+03
  1.798877e+01    1.645424e+03
  1.804189e+01    1.636866e+03
  1.809501e+01    1.632482e+03
  1.814813e+01    1.629836e+03
  1.820125e+01    1.625820e+03
  1.825436e+01    1.631708e+03
  1.830748e+01    1.625056e+03
  1.836060e+01    1.619811e+03
  1.841372e+01    1.617662e+03
  1.846684e+01    1.612867e+03
  1.851995e+01    1.593251e+03
  1.857307e+01    1.579670e+03
  1.862619e+01    1.568648e+03
  1.867931e+01    1.566368e+03
  1.873243e+01    1.585271e+03
  1.878555e+01    1.587838e+03
  1.883866e+01    1.587729e+03
  1.889178e+01    1.586592e+03
  1.894490e+01    1.597973e+03
  1.899802e+01    1.587785e+03
  1.905114e+01    1.581914e+03
  1.910425e+01    1.576765e+03
  1.915737e+01    1.572050e+03
  1.921049e+01    1.568155e+03
  1.926361e+01    1.564823e+03
  1.931673e+01    1.562507e+03
  1.936985e+01    1.559475e+03
  1.942296e+01    1.556719e+03
  1.947608e+01    1.557580e+03
  1.952920e+01    1.553931e+03
  1.958232e+01    1.553066e+03
  1.963544e+01    1.558626e+03
  1.968855e+01    1.543645e+03
  1.974167e+01    1.531677e+03
  1.979479e+01    1.536631e+03
  1.984791e+01    1.534428e+03
  1.990103e+01    1.533066e+03
  1.995414e+01    1.530566e+03
  2.000726e+01    1.529160e+03
  2.006038e+01    1.523833e+03
  2.011350e+01    1.520648e+03
  2.016662e+01    1.513845e+03
  2.021974e+01    1.516656e+03
  2.027285e+01    1.523591e+03
  2.032597e+01    1.507671e+03
  2.037909e+01    1.504585e+03
  2.043221e+01    1.497905e+03
  2.048533e+01    1.497226e+03
  2.053844e+01    1.497222e+03
  2.059156e+01    1.490536e+03
  2.064468e+01    1.488422e+03
  2.069780e+01    1.468499e+03
  2.075092e+01    1.443261e+03
  2.080404e+01    1.428668e+03
  2.085715e+01    1.448006e+03
  2.091027e+01    1.476865e+03
  2.096339e+01    1.482536e+03
  2.101651e+01    1.487277e+03
  2.106963e+01    1.491964e+03
  2.112274e+01    1.496492e+03
  2.117586e+01    1.496119e+03
  2.122898e+01    1.498795e+03
  2.128210e+01    1.497750e+03
  2.133522e+01    1.496280e+03
  2.138834e+01    1.496433e+03
  2.144145e+01    1.495481e+03
  2.149457e+01    1.495721e+03
  2.154769e+01    1.495012e+03
  2.160081e+01    1.493764e+03
  2.165393e+01    1.496248e+03
  2.170704e+01    1.495199e+03
  2.176016e+01    1.485065e+03
  2.181328e+01    1.492806e+03
  2.186640e+01    1.494883e+03
  2.191952e+01    1.493251e+03
  2.197263e+01    1.489355e+03
  2.202575e+01    1.489092e+03
  2.207887e+01    1.488092e+03
  2.213199e+01    1.485859e+03
  2.218511e+01    1.484522e+03
  2.223823e+01    1.484970e+03
  2.229134e+01    1.482485e+03
  2.234446e+01    1.480554e+03
  2.239758e+01    1.480310e+03
  2.245070e+01    1.478930e+03
  2.250382e+01    1.478897e+03
  2.255693e+01    1.475770e+03
  2.261005e+01    1.457977e+03
  2.266317e+01    1.446523e+03
  2.271629e+01    1.436831e+03
  2.276941e+01    1.427109e+03
  2.282253e+01    1.419225e+03
  2.287564e+01    1.415809e+03
  2.292876e+01    1.409692e+03
  2.298188e+01    1.407380e+03
  2.303500e+01    1.405570e+03
  2.308812e+01    1.402108e+03
  2.314123e+01    1.400258e+03
  2.319435e+01    1.395257e+03
  2.324747e+01    1.389878e+03
  2.330059e+01    1.384616e+03
  2.335371e+01    1.382617e+03
  2.340683e+01    1.379083e+03
  2.345994e+01    1.374508e+03
  2.351306e+01    1.371051e+03
  2.356618e+01    1.368692e+03
  2.361930e+01    1.361892e+03
  2.367242e+01    1.356297e+03
  2.372553e+01    1.351692e+03
  2.377865e+01    1.345961e+03
  2.383177e+01    1.340721e+03
  2.388489e+01    1.335178e+03
  2.393801e+01    1.331840e+03
  2.399113e+01    1.332142e+03
  2.404424e+01    1.330262e+03
  2.409736e+01    1.327747e+03
  2.415048e+01    1.323778e+03
  2.420360e+01    1.320114e+03
  2.425672e+01    1.317224e+03
  2.430983e+01    1.312473e+03
  2.436295e+01    1.310943e+03
  2.441607e+01    1.310415e+03
  2.446919e+01    1.309789e+03
  2.452231e+01    1.306016e+03
  2.457542e+01    1.303501e+03
  2.462854e+01    1.300208e+03
  2.468166e+01    1.301364e+03
  2.473478e+01    1.295711e+03
  2.478790e+01    1.288550e+03
  2.484102e+01    1.286316e+03
  2.489413e+01    1.280840e+03
  2.494725e+01    1.276660e+03
  2.500037e+01    1.270362e+03
  2.505349e+01    1.267190e+03
  2.510661e+01    1.260027e+03
  2.515972e+01    1.258885e+03
  2.521284e+01    1.257644e+03
  2.526596e+01    1.259388e+03
  2.531908e+01    1.252074e+03
  2.537220e+01    1.248968e+03
  2.542532e+01    1.247137e+03
  2.547843e+01    1.243627e+03
  2.553155e+01    1.239245e+03
  2.558467e+01    1.233634e+03
  2.563779e+01    1.223924e+03
  2.569091e+01    1.219063e+03
  2.574402e+01    1.208701e+03
  2.579714e+01    1.202318e+03
  2.585026e+01    1.198379e+03
  2.590338e+01    1.190079e+03
  2.595650e+01    1.185616e+03
  2.600962e+01    1.185099e+03
  2.606273e+01    1.186083e+03
  2.611585e+01    1.190479e+03
  2.616897e+01    1.179124e+03
  2.622209e+01    1.183206e+03
  2.627521e+01    1.175749e+03
  2.632832e+01    1.163826e+03
  2.638144e+01    1.168941e+03
  2.643456e+01    1.161947e+03
  2.648768e+01    1.135760e+03
  2.654080e+01    1.129425e+03
