# == pyFAI calibration ==
# Distance Sample to Detector: 0.2946421923531691 m
# PONI: 2.875e-01, 2.439e-01 m
# Rotations: -0.010990 -0.009181 0.000003 rad
# 
# == Fit2d calibration ==
# Distance Sample-beamCenter: 294.672 mm
# Center: x=1436.809, y=1655.851 pix
# Tilt: 0.820 deg  TiltPlanRot: -39.874 deg
# 
# Detector Pilatus 2M	 PixelSize= 1.720e-04, 1.720e-04 m
#    Detector has a mask: True 
#    Detector has a dark current: False 
#    detector has a flat field: False 
# 
# Wavelength: 2.0732883349524408e-11 m
# Mask applied: from detector
# Dark current applied: False
# Flat field applied: False
# Polarization factor: None
# Normalization factor: 1.0
# --> /gpfs/current/raw/FMue_3/FMue_3_20231024_175355_00161.dat
#        q_A^-1             I 
  3.483473e-02             nan
  8.795289e-02             nan
  1.410711e-01             nan
  1.941892e-01             nan
  2.473074e-01             nan
  3.004255e-01             nan
  3.535437e-01             nan
  4.066619e-01    1.195888e+04
  4.597800e-01    1.094342e+04
  5.128982e-01    9.272481e+03
  5.660163e-01    8.390017e+03
  6.191345e-01    8.052472e+03
  6.722527e-01    7.926353e+03
  7.253708e-01    7.969532e+03
  7.784890e-01    8.011963e+03
  8.316071e-01    8.137655e+03
  8.847253e-01    8.263356e+03
  9.378435e-01    8.430514e+03
  9.909616e-01    8.643652e+03
  1.044080e+00    8.953551e+03
  1.097198e+00    9.378906e+03
  1.150316e+00    9.993402e+03
  1.203434e+00    1.070417e+04
  1.256552e+00    1.160541e+04
  1.309671e+00    1.274954e+04
  1.362789e+00    1.383913e+04
  1.415907e+00    1.432220e+04
  1.469025e+00    1.441266e+04
  1.522143e+00    1.426379e+04
  1.575261e+00    1.369822e+04
  1.628380e+00    1.295171e+04
  1.681498e+00    1.200923e+04
  1.734616e+00    1.105632e+04
  1.787734e+00    1.022326e+04
  1.840852e+00    9.504920e+03
  1.893970e+00    8.922949e+03
  1.947089e+00    8.513762e+03
  2.000207e+00    8.210985e+03
  2.053325e+00    8.119065e+03
  2.106443e+00    8.533030e+03
  2.159561e+00    9.416595e+03
  2.212679e+00    9.686435e+03
  2.265797e+00    9.365889e+03
  2.318916e+00    8.644772e+03
  2.372034e+00    7.941528e+03
  2.425152e+00    8.208859e+03
  2.478270e+00    9.602060e+03
  2.531388e+00    1.254498e+04
  2.584506e+00    1.354657e+04
  2.637625e+00    1.074679e+04
  2.690743e+00    8.619589e+03
  2.743861e+00    7.738731e+03
  2.796979e+00    6.464622e+03
  2.850097e+00    5.561896e+03
  2.903215e+00    5.258914e+03
  2.956334e+00    5.199705e+03
  3.009452e+00    5.542895e+03
  3.062570e+00    6.989012e+03
  3.115688e+00    9.291566e+03
  3.168806e+00    9.125269e+03
  3.221924e+00    7.355219e+03
  3.275043e+00    5.793552e+03
  3.328161e+00    4.930945e+03
  3.381279e+00    4.687982e+03
  3.434397e+00    4.690113e+03
  3.487515e+00    4.775365e+03
  3.540633e+00    4.697998e+03
  3.593751e+00    4.619150e+03
  3.646870e+00    4.677618e+03
  3.699988e+00    4.837476e+03
  3.753106e+00    5.102754e+03
  3.806224e+00    5.327088e+03
  3.859342e+00    5.409422e+03
  3.912460e+00    5.668892e+03
  3.965579e+00    6.402535e+03
  4.018697e+00    7.246747e+03
  4.071815e+00    7.371512e+03
  4.124933e+00    6.859827e+03
  4.178051e+00    6.430785e+03
  4.231169e+00    6.270005e+03
  4.284288e+00    6.625767e+03
  4.337406e+00    8.110800e+03
  4.390524e+00    1.023512e+04
  4.443642e+00    1.204794e+04
  4.496760e+00    1.232992e+04
  4.549878e+00    8.631844e+03
  4.602997e+00    5.953313e+03
  4.656115e+00    5.304414e+03
  4.709233e+00    5.096580e+03
  4.762351e+00    5.036981e+03
  4.815469e+00    5.085926e+03
  4.868587e+00    5.200317e+03
  4.921705e+00    5.272504e+03
  4.974824e+00    5.372171e+03
  5.027942e+00    5.492837e+03
  5.081060e+00    5.654527e+03
  5.134178e+00    5.493451e+03
  5.187296e+00    5.091438e+03
  5.240414e+00    4.708168e+03
  5.293533e+00    4.492157e+03
  5.346651e+00    4.393671e+03
  5.399769e+00    4.321796e+03
  5.452887e+00    4.296606e+03
  5.506005e+00    4.167245e+03
  5.559123e+00    3.812683e+03
  5.612242e+00    3.632348e+03
  5.665360e+00    3.591405e+03
  5.718478e+00    3.566982e+03
  5.771596e+00    3.604610e+03
  5.824714e+00    3.697302e+03
  5.877832e+00    3.858472e+03
  5.930951e+00    4.090024e+03
  5.984069e+00    4.145052e+03
  6.037187e+00    3.982483e+03
  6.090305e+00    3.806157e+03
  6.143423e+00    3.754285e+03
  6.196541e+00    3.890189e+03
  6.249660e+00    4.029789e+03
  6.302778e+00    3.907535e+03
  6.355896e+00    3.644321e+03
  6.409014e+00    3.544107e+03
  6.462132e+00    3.478254e+03
  6.515250e+00    3.431633e+03
  6.568368e+00    3.452766e+03
  6.621487e+00    3.514734e+03
  6.674605e+00    3.611625e+03
  6.727723e+00    3.664439e+03
  6.780841e+00    3.535522e+03
  6.833959e+00    3.362999e+03
  6.887077e+00    3.264621e+03
  6.940196e+00    3.228655e+03
  6.993314e+00    3.262761e+03
  7.046432e+00    3.265777e+03
  7.099550e+00    3.192736e+03
  7.152668e+00    3.129570e+03
  7.205786e+00    3.079984e+03
  7.258905e+00    3.063918e+03
  7.312023e+00    3.118684e+03
  7.365141e+00    3.213418e+03
  7.418259e+00    3.264222e+03
  7.471377e+00    3.272274e+03
  7.524495e+00    3.329962e+03
  7.577614e+00    3.459282e+03
  7.630732e+00    3.508365e+03
  7.683850e+00    3.554112e+03
  7.736968e+00    3.627988e+03
  7.790086e+00    3.526933e+03
  7.843204e+00    3.348914e+03
  7.896322e+00    3.213416e+03
  7.949441e+00    3.169257e+03
  8.002559e+00    3.171255e+03
  8.055677e+00    3.138958e+03
  8.108795e+00    3.078020e+03
  8.161913e+00    3.035474e+03
  8.215031e+00    2.985435e+03
  8.268150e+00    2.938840e+03
  8.321268e+00    2.903726e+03
  8.374386e+00    2.880276e+03
  8.427504e+00    2.860926e+03
  8.480622e+00    2.849568e+03
  8.533740e+00    2.809535e+03
  8.586859e+00    2.839388e+03
  8.639977e+00    2.828833e+03
  8.693095e+00    2.816868e+03
  8.746213e+00    2.823508e+03
  8.799331e+00    2.811521e+03
  8.852449e+00    2.795216e+03
  8.905568e+00    2.797213e+03
  8.958686e+00    2.796179e+03
  9.011804e+00    2.794090e+03
  9.064922e+00    2.743408e+03
  9.118040e+00    2.709569e+03
  9.171158e+00    2.693111e+03
  9.224276e+00    2.653681e+03
  9.277395e+00    2.608344e+03
  9.330513e+00    2.577389e+03
  9.383631e+00    2.553082e+03
  9.436749e+00    2.543074e+03
  9.489867e+00    2.553987e+03
  9.542985e+00    2.559485e+03
  9.596104e+00    2.556392e+03
  9.649222e+00    2.561852e+03
  9.702340e+00    2.556599e+03
  9.755458e+00    2.543560e+03
  9.808576e+00    2.539260e+03
  9.861694e+00    2.537574e+03
  9.914813e+00    2.526710e+03
  9.967931e+00    2.504705e+03
  1.002105e+01    2.473500e+03
  1.007417e+01    2.451868e+03
  1.012729e+01    2.431788e+03
  1.018040e+01    2.414371e+03
  1.023352e+01    2.382437e+03
  1.028664e+01    2.347803e+03
  1.033976e+01    2.334086e+03
  1.039288e+01    2.351404e+03
  1.044599e+01    2.342291e+03
  1.049911e+01    2.341396e+03
  1.055223e+01    2.332748e+03
  1.060535e+01    2.333713e+03
  1.065847e+01    2.324733e+03
  1.071158e+01    2.313941e+03
  1.076470e+01    2.304751e+03
  1.081782e+01    2.304258e+03
  1.087094e+01    2.290882e+03
  1.092406e+01    2.303036e+03
  1.097718e+01    2.308790e+03
  1.103029e+01    2.306161e+03
  1.108341e+01    2.298288e+03
  1.113653e+01    2.280007e+03
  1.118965e+01    2.259531e+03
  1.124277e+01    2.247223e+03
  1.129588e+01    2.240327e+03
  1.134900e+01    2.235218e+03
  1.140212e+01    2.240371e+03
  1.145524e+01    2.243757e+03
  1.150836e+01    2.252048e+03
  1.156148e+01    2.247598e+03
  1.161459e+01    2.251251e+03
  1.166771e+01    2.235198e+03
  1.172083e+01    2.236115e+03
  1.177395e+01    2.217895e+03
  1.182707e+01    2.207742e+03
  1.188018e+01    2.210690e+03
  1.193330e+01    2.194811e+03
  1.198642e+01    2.178185e+03
  1.203954e+01    2.157082e+03
  1.209266e+01    2.151961e+03
  1.214578e+01    2.144593e+03
  1.219889e+01    2.150441e+03
  1.225201e+01    2.151202e+03
  1.230513e+01    2.144646e+03
  1.235825e+01    2.143264e+03
  1.241137e+01    2.127446e+03
  1.246448e+01    2.124169e+03
  1.251760e+01    2.121156e+03
  1.257072e+01    2.116306e+03
  1.262384e+01    2.122820e+03
  1.267696e+01    2.108284e+03
  1.273008e+01    2.092072e+03
  1.278319e+01    2.084991e+03
  1.283631e+01    2.072652e+03
  1.288943e+01    2.066465e+03
  1.294255e+01    2.052842e+03
  1.299567e+01    2.051597e+03
  1.304878e+01    2.045188e+03
  1.310190e+01    2.042452e+03
  1.315502e+01    2.037856e+03
  1.320814e+01    2.015351e+03
  1.326126e+01    1.992289e+03
  1.331437e+01    1.983995e+03
  1.336749e+01    1.975829e+03
  1.342061e+01    1.966847e+03
  1.347373e+01    1.987058e+03
  1.352685e+01    1.987805e+03
  1.357997e+01    1.974646e+03
  1.363308e+01    1.961196e+03
  1.368620e+01    1.956820e+03
  1.373932e+01    1.949049e+03
  1.379244e+01    1.943672e+03
  1.384556e+01    1.935540e+03
  1.389867e+01    1.926177e+03
  1.395179e+01    1.918557e+03
  1.400491e+01    1.916127e+03
  1.405803e+01    1.911870e+03
  1.411115e+01    1.906186e+03
  1.416427e+01    1.895888e+03
  1.421738e+01    1.891203e+03
  1.427050e+01    1.881925e+03
  1.432362e+01    1.883714e+03
  1.437674e+01    1.880733e+03
  1.442986e+01    1.870675e+03
  1.448297e+01    1.864590e+03
  1.453609e+01    1.857278e+03
  1.458921e+01    1.847141e+03
  1.464233e+01    1.843723e+03
  1.469545e+01    1.836007e+03
  1.474857e+01    1.816721e+03
  1.480168e+01    1.827965e+03
  1.485480e+01    1.823797e+03
  1.490792e+01    1.819438e+03
  1.496104e+01    1.810813e+03
  1.501416e+01    1.808737e+03
  1.506727e+01    1.805138e+03
  1.512039e+01    1.803189e+03
  1.517351e+01    1.814192e+03
  1.522663e+01    1.829209e+03
  1.527975e+01    1.826329e+03
  1.533286e+01    1.810848e+03
  1.538598e+01    1.801185e+03
  1.543910e+01    1.792047e+03
  1.549222e+01    1.789832e+03
  1.554534e+01    1.787920e+03
  1.559846e+01    1.784412e+03
  1.565157e+01    1.779707e+03
  1.570469e+01    1.772389e+03
  1.575781e+01    1.770869e+03
  1.581093e+01    1.768086e+03
  1.586405e+01    1.763349e+03
  1.591716e+01    1.757496e+03
  1.597028e+01    1.752359e+03
  1.602340e+01    1.738468e+03
  1.607652e+01    1.725442e+03
  1.612964e+01    1.702773e+03
  1.618276e+01    1.691467e+03
  1.623587e+01    1.693521e+03
  1.628899e+01    1.709141e+03
  1.634211e+01    1.706385e+03
  1.639523e+01    1.701192e+03
  1.644835e+01    1.704670e+03
  1.650146e+01    1.697948e+03
  1.655458e+01    1.696149e+03
  1.660770e+01    1.691271e+03
  1.666082e+01    1.686575e+03
  1.671394e+01    1.685816e+03
  1.676706e+01    1.680598e+03
  1.682017e+01    1.694359e+03
  1.687329e+01    1.683489e+03
  1.692641e+01    1.676129e+03
  1.697953e+01    1.673075e+03
  1.703265e+01    1.668151e+03
  1.708576e+01    1.666797e+03
  1.713888e+01    1.658923e+03
  1.719200e+01    1.657800e+03
  1.724512e+01    1.649488e+03
  1.729824e+01    1.650202e+03
  1.735136e+01    1.643311e+03
  1.740447e+01    1.621973e+03
  1.745759e+01    1.630315e+03
  1.751071e+01    1.631250e+03
  1.756383e+01    1.641298e+03
  1.761695e+01    1.626650e+03
  1.767006e+01    1.623542e+03
  1.772318e+01    1.614919e+03
  1.777630e+01    1.613822e+03
  1.782942e+01    1.604455e+03
  1.788254e+01    1.601205e+03
  1.793565e+01    1.598356e+03
  1.798877e+01    1.596027e+03
  1.804189e+01    1.589035e+03
  1.809501e+01    1.584313e+03
  1.814813e+01    1.582965e+03
  1.820125e+01    1.575634e+03
  1.825436e+01    1.582164e+03
  1.830748e+01    1.575708e+03
  1.836060e+01    1.571174e+03
  1.841372e+01    1.569043e+03
  1.846684e+01    1.562833e+03
  1.851995e+01    1.544062e+03
  1.857307e+01    1.529540e+03
  1.862619e+01    1.519478e+03
  1.867931e+01    1.515930e+03
  1.873243e+01    1.534442e+03
  1.878555e+01    1.538318e+03
  1.883866e+01    1.536418e+03
  1.889178e+01    1.535329e+03
  1.894490e+01    1.547457e+03
  1.899802e+01    1.537787e+03
  1.905114e+01    1.532769e+03
  1.910425e+01    1.527528e+03
  1.915737e+01    1.522441e+03
  1.921049e+01    1.519509e+03
  1.926361e+01    1.515323e+03
  1.931673e+01    1.513419e+03
  1.936985e+01    1.510564e+03
  1.942296e+01    1.507823e+03
  1.947608e+01    1.507743e+03
  1.952920e+01    1.503357e+03
  1.958232e+01    1.504239e+03
  1.963544e+01    1.509030e+03
  1.968855e+01    1.494126e+03
  1.974167e+01    1.482992e+03
  1.979479e+01    1.488587e+03
  1.984791e+01    1.487418e+03
  1.990103e+01    1.483738e+03
  1.995414e+01    1.482046e+03
  2.000726e+01    1.479933e+03
  2.006038e+01    1.475766e+03
  2.011350e+01    1.471729e+03
  2.016662e+01    1.465084e+03
  2.021974e+01    1.468355e+03
  2.027285e+01    1.474797e+03
  2.032597e+01    1.459225e+03
  2.037909e+01    1.454882e+03
  2.043221e+01    1.450097e+03
  2.048533e+01    1.447899e+03
  2.053844e+01    1.447198e+03
  2.059156e+01    1.441048e+03
  2.064468e+01    1.439621e+03
  2.069780e+01    1.419567e+03
  2.075092e+01    1.395263e+03
  2.080404e+01    1.382213e+03
  2.085715e+01    1.400328e+03
  2.091027e+01    1.426063e+03
  2.096339e+01    1.434875e+03
  2.101651e+01    1.438934e+03
  2.106963e+01    1.441851e+03
  2.112274e+01    1.446673e+03
  2.117586e+01    1.448312e+03
  2.122898e+01    1.450371e+03
  2.128210e+01    1.449033e+03
  2.133522e+01    1.446874e+03
  2.138834e+01    1.446594e+03
  2.144145e+01    1.445827e+03
  2.149457e+01    1.447414e+03
  2.154769e+01    1.446532e+03
  2.160081e+01    1.445393e+03
  2.165393e+01    1.446522e+03
  2.170704e+01    1.446741e+03
  2.176016e+01    1.436711e+03
  2.181328e+01    1.443784e+03
  2.186640e+01    1.445590e+03
  2.191952e+01    1.443269e+03
  2.197263e+01    1.441543e+03
  2.202575e+01    1.440640e+03
  2.207887e+01    1.440606e+03
  2.213199e+01    1.437678e+03
  2.218511e+01    1.436505e+03
  2.223823e+01    1.436541e+03
  2.229134e+01    1.435715e+03
  2.234446e+01    1.433937e+03
  2.239758e+01    1.433470e+03
  2.245070e+01    1.431129e+03
  2.250382e+01    1.432019e+03
  2.255693e+01    1.428199e+03
  2.261005e+01    1.410298e+03
  2.266317e+01    1.397921e+03
  2.271629e+01    1.389232e+03
  2.276941e+01    1.380479e+03
  2.282253e+01    1.372854e+03
  2.287564e+01    1.369413e+03
  2.292876e+01    1.362981e+03
  2.298188e+01    1.361793e+03
  2.303500e+01    1.359265e+03
  2.308812e+01    1.356391e+03
  2.314123e+01    1.354248e+03
  2.319435e+01    1.348777e+03
  2.324747e+01    1.342218e+03
  2.330059e+01    1.338938e+03
  2.335371e+01    1.337300e+03
  2.340683e+01    1.331469e+03
  2.345994e+01    1.328408e+03
  2.351306e+01    1.326060e+03
  2.356618e+01    1.321889e+03
  2.361930e+01    1.315627e+03
  2.367242e+01    1.311966e+03
  2.372553e+01    1.304256e+03
  2.377865e+01    1.301335e+03
  2.383177e+01    1.294655e+03
  2.388489e+01    1.289529e+03
  2.393801e+01    1.285407e+03
  2.399113e+01    1.286239e+03
  2.404424e+01    1.284965e+03
  2.409736e+01    1.283976e+03
  2.415048e+01    1.278788e+03
  2.420360e+01    1.274465e+03
  2.425672e+01    1.273898e+03
  2.430983e+01    1.269198e+03
  2.436295e+01    1.267838e+03
  2.441607e+01    1.266882e+03
  2.446919e+01    1.265742e+03
  2.452231e+01    1.261827e+03
  2.457542e+01    1.261267e+03
  2.462854e+01    1.258068e+03
  2.468166e+01    1.256617e+03
  2.473478e+01    1.251093e+03
  2.478790e+01    1.244812e+03
  2.484102e+01    1.242822e+03
  2.489413e+01    1.239158e+03
  2.494725e+01    1.232779e+03
  2.500037e+01    1.228112e+03
  2.505349e+01    1.223134e+03
  2.510661e+01    1.220560e+03
  2.515972e+01    1.216199e+03
  2.521284e+01    1.215756e+03
  2.526596e+01    1.215051e+03
  2.531908e+01    1.210495e+03
  2.537220e+01    1.209099e+03
  2.542532e+01    1.204946e+03
  2.547843e+01    1.202637e+03
  2.553155e+01    1.199407e+03
  2.558467e+01    1.192885e+03
  2.563779e+01    1.184989e+03
  2.569091e+01    1.181302e+03
  2.574402e+01    1.171449e+03
  2.579714e+01    1.164372e+03
  2.585026e+01    1.156409e+03
  2.590338e+01    1.155288e+03
  2.595650e+01    1.149220e+03
  2.600962e+01    1.145338e+03
  2.606273e+01    1.144031e+03
  2.611585e+01    1.147629e+03
  2.616897e+01    1.146379e+03
  2.622209e+01    1.144766e+03
  2.627521e+01    1.140834e+03
  2.632832e+01    1.131906e+03
  2.638144e+01    1.135052e+03
  2.643456e+01    1.128114e+03
  2.648768e+01    1.106302e+03
  2.654080e+01    1.105766e+03
