# == pyFAI calibration ==
# Distance Sample to Detector: 0.2946421923531691 m
# PONI: 2.875e-01, 2.439e-01 m
# Rotations: -0.010990 -0.009181 0.000003 rad
# 
# == Fit2d calibration ==
# Distance Sample-beamCenter: 294.672 mm
# Center: x=1436.809, y=1655.851 pix
# Tilt: 0.820 deg  TiltPlanRot: -39.874 deg
# 
# Detector Pilatus 2M	 PixelSize= 1.720e-04, 1.720e-04 m
#    Detector has a mask: True 
#    Detector has a dark current: False 
#    detector has a flat field: False 
# 
# Wavelength: 2.0732883349524408e-11 m
# Mask applied: from detector
# Dark current applied: False
# Flat field applied: False
# Polarization factor: None
# Normalization factor: 1.0
# --> /gpfs/current/raw/FMue_3/FMue_3_20231024_175355_00049.dat
#        q_A^-1             I 
  3.483473e-02             nan
  8.795289e-02             nan
  1.410711e-01             nan
  1.941892e-01             nan
  2.473074e-01             nan
  3.004255e-01             nan
  3.535437e-01             nan
  4.066619e-01    1.065962e+04
  4.597800e-01    9.991127e+03
  5.128982e-01    8.840712e+03
  5.660163e-01    8.331719e+03
  6.191345e-01    8.262973e+03
  6.722527e-01    8.371336e+03
  7.253708e-01    8.805150e+03
  7.784890e-01    1.166678e+04
  8.316071e-01    2.224714e+04
  8.847253e-01    1.752792e+04
  9.378435e-01    1.027933e+04
  9.909616e-01    1.021224e+04
  1.044080e+00    1.016703e+04
  1.097198e+00    9.862210e+03
  1.150316e+00    1.020240e+04
  1.203434e+00    1.090980e+04
  1.256552e+00    1.189276e+04
  1.309671e+00    1.265030e+04
  1.362789e+00    1.356553e+04
  1.415907e+00    1.424842e+04
  1.469025e+00    1.447888e+04
  1.522143e+00    1.442300e+04
  1.575261e+00    1.400546e+04
  1.628380e+00    1.448854e+04
  1.681498e+00    1.577330e+04
  1.734616e+00    1.291668e+04
  1.787734e+00    1.058324e+04
  1.840852e+00    9.702333e+03
  1.893970e+00    9.124139e+03
  1.947089e+00    9.007157e+03
  2.000207e+00    8.622896e+03
  2.053325e+00    7.931067e+03
  2.106443e+00    7.704432e+03
  2.159561e+00    7.845550e+03
  2.212679e+00    8.025440e+03
  2.265797e+00    8.258975e+03
  2.318916e+00    8.184385e+03
  2.372034e+00    8.692190e+03
  2.425152e+00    1.206834e+04
  2.478270e+00    9.230653e+03
  2.531388e+00    8.264281e+03
  2.584506e+00    8.818085e+03
  2.637625e+00    8.800455e+03
  2.690743e+00    8.966863e+03
  2.743861e+00    1.123531e+04
  2.796979e+00    8.233230e+03
  2.850097e+00    5.962298e+03
  2.903215e+00    5.483973e+03
  2.956334e+00    5.303499e+03
  3.009452e+00    5.382596e+03
  3.062570e+00    6.171112e+03
  3.115688e+00    7.939533e+03
  3.168806e+00    8.794701e+03
  3.221924e+00    9.071420e+03
  3.275043e+00    8.721763e+03
  3.328161e+00    6.321559e+03
  3.381279e+00    5.957283e+03
  3.434397e+00    5.382695e+03
  3.487515e+00    5.082412e+03
  3.540633e+00    5.011578e+03
  3.593751e+00    5.005133e+03
  3.646870e+00    5.561073e+03
  3.699988e+00    5.482085e+03
  3.753106e+00    5.070093e+03
  3.806224e+00    5.122173e+03
  3.859342e+00    5.488340e+03
  3.912460e+00    5.558905e+03
  3.965579e+00    5.266651e+03
  4.018697e+00    5.576380e+03
  4.071815e+00    7.296493e+03
  4.124933e+00    7.907853e+03
  4.178051e+00    8.101793e+03
  4.231169e+00    6.735776e+03
  4.284288e+00    6.307302e+03
  4.337406e+00    7.017669e+03
  4.390524e+00    7.772577e+03
  4.443642e+00    1.005529e+04
  4.496760e+00    1.177724e+04
  4.549878e+00    9.070611e+03
  4.602997e+00    6.073775e+03
  4.656115e+00    5.249279e+03
  4.709233e+00    5.344123e+03
  4.762351e+00    5.878696e+03
  4.815469e+00    5.597174e+03
  4.868587e+00    5.330438e+03
  4.921705e+00    5.552339e+03
  4.974824e+00    5.453523e+03
  5.027942e+00    5.423156e+03
  5.081060e+00    5.504293e+03
  5.134178e+00    5.210619e+03
  5.187296e+00    5.034454e+03
  5.240414e+00    5.041439e+03
  5.293533e+00    4.774920e+03
  5.346651e+00    4.488743e+03
  5.399769e+00    4.296052e+03
  5.452887e+00    4.350191e+03
  5.506005e+00    4.473617e+03
  5.559123e+00    4.058087e+03
  5.612242e+00    3.819723e+03
  5.665360e+00    3.746438e+03
  5.718478e+00    3.534174e+03
  5.771596e+00    3.470334e+03
  5.824714e+00    3.542966e+03
  5.877832e+00    3.597773e+03
  5.930951e+00    3.651121e+03
  5.984069e+00    3.765526e+03
  6.037187e+00    3.743901e+03
  6.090305e+00    3.719088e+03
  6.143423e+00    3.666768e+03
  6.196541e+00    3.716930e+03
  6.249660e+00    4.152177e+03
  6.302778e+00    4.245978e+03
  6.355896e+00    3.936878e+03
  6.409014e+00    3.952839e+03
  6.462132e+00    3.786596e+03
  6.515250e+00    3.700147e+03
  6.568368e+00    3.605630e+03
  6.621487e+00    3.582969e+03
  6.674605e+00    3.518900e+03
  6.727723e+00    3.425382e+03
  6.780841e+00    3.376038e+03
  6.833959e+00    3.384909e+03
  6.887077e+00    3.345972e+03
  6.940196e+00    3.297723e+03
  6.993314e+00    3.358916e+03
  7.046432e+00    3.399660e+03
  7.099550e+00    3.525597e+03
  7.152668e+00    3.528959e+03
  7.205786e+00    3.342400e+03
  7.258905e+00    3.257786e+03
  7.312023e+00    3.163406e+03
  7.365141e+00    3.102191e+03
  7.418259e+00    3.096078e+03
  7.471377e+00    3.111891e+03
  7.524495e+00    3.178579e+03
  7.577614e+00    3.197498e+03
  7.630732e+00    3.236672e+03
  7.683850e+00    3.406138e+03
  7.736968e+00    3.611997e+03
  7.790086e+00    3.626888e+03
  7.843204e+00    3.457802e+03
  7.896322e+00    3.210105e+03
  7.949441e+00    3.029681e+03
  8.002559e+00    2.970209e+03
  8.055677e+00    2.963525e+03
  8.108795e+00    2.988312e+03
  8.161913e+00    3.078823e+03
  8.215031e+00    3.168784e+03
  8.268150e+00    3.063545e+03
  8.321268e+00    2.968758e+03
  8.374386e+00    2.965491e+03
  8.427504e+00    2.933886e+03
  8.480622e+00    2.916947e+03
  8.533740e+00    2.923150e+03
  8.586859e+00    2.953483e+03
  8.639977e+00    2.939477e+03
  8.693095e+00    2.892337e+03
  8.746213e+00    2.873886e+03
  8.799331e+00    2.857073e+03
  8.852449e+00    2.825996e+03
  8.905568e+00    2.821695e+03
  8.958686e+00    2.854847e+03
  9.011804e+00    2.866129e+03
  9.064922e+00    2.799483e+03
  9.118040e+00    2.696744e+03
  9.171158e+00    2.663859e+03
  9.224276e+00    2.671154e+03
  9.277395e+00    2.645031e+03
  9.330513e+00    2.620241e+03
  9.383631e+00    2.621562e+03
  9.436749e+00    2.617627e+03
  9.489867e+00    2.628105e+03
  9.542985e+00    2.626172e+03
  9.596104e+00    2.605045e+03
  9.649222e+00    2.580120e+03
  9.702340e+00    2.558976e+03
  9.755458e+00    2.550880e+03
  9.808576e+00    2.535928e+03
  9.861694e+00    2.536944e+03
  9.914813e+00    2.544435e+03
  9.967931e+00    2.541752e+03
  1.002105e+01    2.505239e+03
  1.007417e+01    2.458405e+03
  1.012729e+01    2.422906e+03
  1.018040e+01    2.418746e+03
  1.023352e+01    2.414071e+03
  1.028664e+01    2.408760e+03
  1.033976e+01    2.413667e+03
  1.039288e+01    2.428430e+03
  1.044599e+01    2.408267e+03
  1.049911e+01    2.409173e+03
  1.055223e+01    2.390564e+03
  1.060535e+01    2.381944e+03
  1.065847e+01    2.372149e+03
  1.071158e+01    2.367038e+03
  1.076470e+01    2.357170e+03
  1.081782e+01    2.374697e+03
  1.087094e+01    2.375257e+03
  1.092406e+01    2.365150e+03
  1.097718e+01    2.354218e+03
  1.103029e+01    2.331390e+03
  1.108341e+01    2.318757e+03
  1.113653e+01    2.307677e+03
  1.118965e+01    2.291932e+03
  1.124277e+01    2.281711e+03
  1.129588e+01    2.274028e+03
  1.134900e+01    2.265721e+03
  1.140212e+01    2.255625e+03
  1.145524e+01    2.240908e+03
  1.150836e+01    2.237042e+03
  1.156148e+01    2.233729e+03
  1.161459e+01    2.240126e+03
  1.166771e+01    2.233983e+03
  1.172083e+01    2.247109e+03
  1.177395e+01    2.241097e+03
  1.182707e+01    2.243318e+03
  1.188018e+01    2.254509e+03
  1.193330e+01    2.241406e+03
  1.198642e+01    2.225084e+03
  1.203954e+01    2.199726e+03
  1.209266e+01    2.193463e+03
  1.214578e+01    2.185298e+03
  1.219889e+01    2.186873e+03
  1.225201e+01    2.191233e+03
  1.230513e+01    2.194372e+03
  1.235825e+01    2.198145e+03
  1.241137e+01    2.185105e+03
  1.246448e+01    2.187687e+03
  1.251760e+01    2.189767e+03
  1.257072e+01    2.186088e+03
  1.262384e+01    2.183774e+03
  1.267696e+01    2.167747e+03
  1.273008e+01    2.150756e+03
  1.278319e+01    2.137903e+03
  1.283631e+01    2.126508e+03
  1.288943e+01    2.118732e+03
  1.294255e+01    2.106438e+03
  1.299567e+01    2.099519e+03
  1.304878e+01    2.092522e+03
  1.310190e+01    2.088583e+03
  1.315502e+01    2.084337e+03
  1.320814e+01    2.059934e+03
  1.326126e+01    2.027955e+03
  1.331437e+01    2.012614e+03
  1.336749e+01    2.000315e+03
  1.342061e+01    1.985905e+03
  1.347373e+01    2.011435e+03
  1.352685e+01    2.014702e+03
  1.357997e+01    2.006158e+03
  1.363308e+01    1.996310e+03
  1.368620e+01    1.986113e+03
  1.373932e+01    1.976310e+03
  1.379244e+01    1.967842e+03
  1.384556e+01    1.961465e+03
  1.389867e+01    1.955446e+03
  1.395179e+01    1.949686e+03
  1.400491e+01    1.947011e+03
  1.405803e+01    1.943642e+03
  1.411115e+01    1.936614e+03
  1.416427e+01    1.929351e+03
  1.421738e+01    1.926863e+03
  1.427050e+01    1.919571e+03
  1.432362e+01    1.922944e+03
  1.437674e+01    1.923664e+03
  1.442986e+01    1.913699e+03
  1.448297e+01    1.902833e+03
  1.453609e+01    1.897443e+03
  1.458921e+01    1.886164e+03
  1.464233e+01    1.882536e+03
  1.469545e+01    1.878796e+03
  1.474857e+01    1.859775e+03
  1.480168e+01    1.874172e+03
  1.485480e+01    1.871865e+03
  1.490792e+01    1.866851e+03
  1.496104e+01    1.856340e+03
  1.501416e+01    1.853062e+03
  1.506727e+01    1.849060e+03
  1.512039e+01    1.844323e+03
  1.517351e+01    1.855648e+03
  1.522663e+01    1.869926e+03
  1.527975e+01    1.864989e+03
  1.533286e+01    1.849138e+03
  1.538598e+01    1.837286e+03
  1.543910e+01    1.828529e+03
  1.549222e+01    1.827490e+03
  1.554534e+01    1.829980e+03
  1.559846e+01    1.826596e+03
  1.565157e+01    1.818502e+03
  1.570469e+01    1.811241e+03
  1.575781e+01    1.808713e+03
  1.581093e+01    1.802708e+03
  1.586405e+01    1.801401e+03
  1.591716e+01    1.793339e+03
  1.597028e+01    1.789475e+03
  1.602340e+01    1.772939e+03
  1.607652e+01    1.762504e+03
  1.612964e+01    1.738621e+03
  1.618276e+01    1.728388e+03
  1.623587e+01    1.729667e+03
  1.628899e+01    1.748055e+03
  1.634211e+01    1.746017e+03
  1.639523e+01    1.741740e+03
  1.644835e+01    1.743778e+03
  1.650146e+01    1.738122e+03
  1.655458e+01    1.736678e+03
  1.660770e+01    1.732071e+03
  1.666082e+01    1.726939e+03
  1.671394e+01    1.724240e+03
  1.676706e+01    1.720480e+03
  1.682017e+01    1.733755e+03
  1.687329e+01    1.723339e+03
  1.692641e+01    1.715966e+03
  1.697953e+01    1.711123e+03
  1.703265e+01    1.707461e+03
  1.708576e+01    1.706032e+03
  1.713888e+01    1.696880e+03
  1.719200e+01    1.695932e+03
  1.724512e+01    1.687657e+03
  1.729824e+01    1.689283e+03
  1.735136e+01    1.681784e+03
  1.740447e+01    1.659114e+03
  1.745759e+01    1.667288e+03
  1.751071e+01    1.668942e+03
  1.756383e+01    1.677879e+03
  1.761695e+01    1.661834e+03
  1.767006e+01    1.658607e+03
  1.772318e+01    1.648038e+03
  1.777630e+01    1.648913e+03
  1.782942e+01    1.640606e+03
  1.788254e+01    1.636953e+03
  1.793565e+01    1.634481e+03
  1.798877e+01    1.631985e+03
  1.804189e+01    1.624819e+03
  1.809501e+01    1.619499e+03
  1.814813e+01    1.617850e+03
  1.820125e+01    1.612668e+03
  1.825436e+01    1.618695e+03
  1.830748e+01    1.613301e+03
  1.836060e+01    1.606343e+03
  1.841372e+01    1.606361e+03
  1.846684e+01    1.601463e+03
  1.851995e+01    1.580852e+03
  1.857307e+01    1.568609e+03
  1.862619e+01    1.557109e+03
  1.867931e+01    1.554225e+03
  1.873243e+01    1.573040e+03
  1.878555e+01    1.576020e+03
  1.883866e+01    1.574694e+03
  1.889178e+01    1.573761e+03
  1.894490e+01    1.586225e+03
  1.899802e+01    1.575287e+03
  1.905114e+01    1.571366e+03
  1.910425e+01    1.564482e+03
  1.915737e+01    1.560039e+03
  1.921049e+01    1.556237e+03
  1.926361e+01    1.554288e+03
  1.931673e+01    1.549734e+03
  1.936985e+01    1.547833e+03
  1.942296e+01    1.544303e+03
  1.947608e+01    1.544735e+03
  1.952920e+01    1.541139e+03
  1.958232e+01    1.541862e+03
  1.963544e+01    1.546959e+03
  1.968855e+01    1.530904e+03
  1.974167e+01    1.519127e+03
  1.979479e+01    1.524428e+03
  1.984791e+01    1.523071e+03
  1.990103e+01    1.521851e+03
  1.995414e+01    1.518499e+03
  2.000726e+01    1.517160e+03
  2.006038e+01    1.511929e+03
  2.011350e+01    1.509022e+03
  2.016662e+01    1.501730e+03
  2.021974e+01    1.505297e+03
  2.027285e+01    1.513228e+03
  2.032597e+01    1.496076e+03
  2.037909e+01    1.492185e+03
  2.043221e+01    1.486522e+03
  2.048533e+01    1.486853e+03
  2.053844e+01    1.486553e+03
  2.059156e+01    1.479852e+03
  2.064468e+01    1.476117e+03
  2.069780e+01    1.456966e+03
  2.075092e+01    1.433273e+03
  2.080404e+01    1.418997e+03
  2.085715e+01    1.438465e+03
  2.091027e+01    1.464952e+03
  2.096339e+01    1.473044e+03
  2.101651e+01    1.475620e+03
  2.106963e+01    1.480855e+03
  2.112274e+01    1.484944e+03
  2.117586e+01    1.486960e+03
  2.122898e+01    1.488584e+03
  2.128210e+01    1.486480e+03
  2.133522e+01    1.486906e+03
  2.138834e+01    1.484605e+03
  2.144145e+01    1.483969e+03
  2.149457e+01    1.484092e+03
  2.154769e+01    1.484128e+03
  2.160081e+01    1.482366e+03
  2.165393e+01    1.484087e+03
  2.170704e+01    1.483267e+03
  2.176016e+01    1.474499e+03
  2.181328e+01    1.481944e+03
  2.186640e+01    1.484040e+03
  2.191952e+01    1.480338e+03
  2.197263e+01    1.479301e+03
  2.202575e+01    1.476563e+03
  2.207887e+01    1.476187e+03
  2.213199e+01    1.474122e+03
  2.218511e+01    1.473800e+03
  2.223823e+01    1.473428e+03
  2.229134e+01    1.471547e+03
  2.234446e+01    1.469750e+03
  2.239758e+01    1.469875e+03
  2.245070e+01    1.466343e+03
  2.250382e+01    1.468719e+03
  2.255693e+01    1.464343e+03
  2.261005e+01    1.447120e+03
  2.266317e+01    1.434554e+03
  2.271629e+01    1.424809e+03
  2.276941e+01    1.416633e+03
  2.282253e+01    1.407561e+03
  2.287564e+01    1.405436e+03
  2.292876e+01    1.400635e+03
  2.298188e+01    1.397216e+03
  2.303500e+01    1.395348e+03
  2.308812e+01    1.391483e+03
  2.314123e+01    1.389625e+03
  2.319435e+01    1.384516e+03
  2.324747e+01    1.377676e+03
  2.330059e+01    1.375407e+03
  2.335371e+01    1.372840e+03
  2.340683e+01    1.368366e+03
  2.345994e+01    1.364545e+03
  2.351306e+01    1.362289e+03
  2.356618e+01    1.357761e+03
  2.361930e+01    1.351825e+03
  2.367242e+01    1.347083e+03
  2.372553e+01    1.340957e+03
  2.377865e+01    1.335559e+03
  2.383177e+01    1.330021e+03
  2.388489e+01    1.324279e+03
  2.393801e+01    1.323536e+03
  2.399113e+01    1.321866e+03
  2.404424e+01    1.318831e+03
  2.409736e+01    1.316966e+03
  2.415048e+01    1.314223e+03
  2.420360e+01    1.310014e+03
  2.425672e+01    1.304995e+03
  2.430983e+01    1.302979e+03
  2.436295e+01    1.304261e+03
  2.441607e+01    1.298413e+03
  2.446919e+01    1.299007e+03
  2.452231e+01    1.296509e+03
  2.457542e+01    1.292891e+03
  2.462854e+01    1.290742e+03
  2.468166e+01    1.289714e+03
  2.473478e+01    1.284858e+03
  2.478790e+01    1.280308e+03
  2.484102e+01    1.277037e+03
  2.489413e+01    1.271203e+03
  2.494725e+01    1.269441e+03
  2.500037e+01    1.262455e+03
  2.505349e+01    1.255388e+03
  2.510661e+01    1.252190e+03
  2.515972e+01    1.251406e+03
  2.521284e+01    1.248064e+03
  2.526596e+01    1.247679e+03
  2.531908e+01    1.240520e+03
  2.537220e+01    1.241869e+03
  2.542532e+01    1.235115e+03
  2.547843e+01    1.236397e+03
  2.553155e+01    1.230214e+03
  2.558467e+01    1.222977e+03
  2.563779e+01    1.214394e+03
  2.569091e+01    1.212043e+03
  2.574402e+01    1.200782e+03
  2.579714e+01    1.197362e+03
  2.585026e+01    1.186962e+03
  2.590338e+01    1.180635e+03
  2.595650e+01    1.178911e+03
  2.600962e+01    1.178286e+03
  2.606273e+01    1.178532e+03
  2.611585e+01    1.174361e+03
  2.616897e+01    1.174173e+03
  2.622209e+01    1.175963e+03
  2.627521e+01    1.169615e+03
  2.632832e+01    1.158659e+03
  2.638144e+01    1.160419e+03
  2.643456e+01    1.153017e+03
  2.648768e+01    1.142698e+03
  2.654080e+01    1.132890e+03
