# == pyFAI calibration ==
# Distance Sample to Detector: 0.2946421923531691 m
# PONI: 2.875e-01, 2.439e-01 m
# Rotations: -0.010990 -0.009181 0.000003 rad
# 
# == Fit2d calibration ==
# Distance Sample-beamCenter: 294.672 mm
# Center: x=1436.809, y=1655.851 pix
# Tilt: 0.820 deg  TiltPlanRot: -39.874 deg
# 
# Detector Pilatus 2M	 PixelSize= 1.720e-04, 1.720e-04 m
#    Detector has a mask: True 
#    Detector has a dark current: False 
#    detector has a flat field: False 
# 
# Wavelength: 2.0732883349524408e-11 m
# Mask applied: from detector
# Dark current applied: False
# Flat field applied: False
# Polarization factor: None
# Normalization factor: 1.0
# --> /gpfs/current/raw/FMue_3/FMue_3_20231024_175355_00151.dat
#        q_A^-1             I 
  3.483473e-02             nan
  8.795289e-02             nan
  1.410711e-01             nan
  1.941892e-01             nan
  2.473074e-01             nan
  3.004255e-01             nan
  3.535437e-01             nan
  4.066619e-01    1.229673e+04
  4.597800e-01    1.127325e+04
  5.128982e-01    9.551796e+03
  5.660163e-01    8.636426e+03
  6.191345e-01    8.272685e+03
  6.722527e-01    8.118185e+03
  7.253708e-01    8.145237e+03
  7.784890e-01    8.179021e+03
  8.316071e-01    8.313030e+03
  8.847253e-01    8.426783e+03
  9.378435e-01    8.604547e+03
  9.909616e-01    8.801412e+03
  1.044080e+00    9.102459e+03
  1.097198e+00    9.503514e+03
  1.150316e+00    1.010302e+04
  1.203434e+00    1.079859e+04
  1.256552e+00    1.169538e+04
  1.309671e+00    1.284168e+04
  1.362789e+00    1.392140e+04
  1.415907e+00    1.440958e+04
  1.469025e+00    1.450285e+04
  1.522143e+00    1.435185e+04
  1.575261e+00    1.376906e+04
  1.628380e+00    1.301874e+04
  1.681498e+00    1.207921e+04
  1.734616e+00    1.111812e+04
  1.787734e+00    1.029310e+04
  1.840852e+00    9.567015e+03
  1.893970e+00    8.981945e+03
  1.947089e+00    8.584228e+03
  2.000207e+00    8.286731e+03
  2.053325e+00    8.175332e+03
  2.106443e+00    8.547779e+03
  2.159561e+00    9.336188e+03
  2.212679e+00    9.625877e+03
  2.265797e+00    9.385445e+03
  2.318916e+00    8.721534e+03
  2.372034e+00    8.015315e+03
  2.425152e+00    8.269509e+03
  2.478270e+00    9.614520e+03
  2.531388e+00    1.231219e+04
  2.584506e+00    1.334641e+04
  2.637625e+00    1.085384e+04
  2.690743e+00    8.759162e+03
  2.743861e+00    7.854034e+03
  2.796979e+00    6.546869e+03
  2.850097e+00    5.628448e+03
  2.903215e+00    5.314013e+03
  2.956334e+00    5.253216e+03
  3.009452e+00    5.596673e+03
  3.062570e+00    6.975965e+03
  3.115688e+00    9.308645e+03
  3.168806e+00    9.237098e+03
  3.221924e+00    7.448051e+03
  3.275043e+00    5.863392e+03
  3.328161e+00    4.978564e+03
  3.381279e+00    4.736841e+03
  3.434397e+00    4.733458e+03
  3.487515e+00    4.814027e+03
  3.540633e+00    4.735200e+03
  3.593751e+00    4.646344e+03
  3.646870e+00    4.704663e+03
  3.699988e+00    4.855449e+03
  3.753106e+00    5.102577e+03
  3.806224e+00    5.318459e+03
  3.859342e+00    5.433104e+03
  3.912460e+00    5.696267e+03
  3.965579e+00    6.367396e+03
  4.018697e+00    7.152430e+03
  4.071815e+00    7.356329e+03
  4.124933e+00    6.919911e+03
  4.178051e+00    6.491202e+03
  4.231169e+00    6.326806e+03
  4.284288e+00    6.650650e+03
  4.337406e+00    8.033505e+03
  4.390524e+00    1.011126e+04
  4.443642e+00    1.208938e+04
  4.496760e+00    1.248949e+04
  4.549878e+00    8.782200e+03
  4.602997e+00    6.022103e+03
  4.656115e+00    5.350169e+03
  4.709233e+00    5.127378e+03
  4.762351e+00    5.069004e+03
  4.815469e+00    5.102719e+03
  4.868587e+00    5.210955e+03
  4.921705e+00    5.292692e+03
  4.974824e+00    5.384603e+03
  5.027942e+00    5.492752e+03
  5.081060e+00    5.641239e+03
  5.134178e+00    5.506560e+03
  5.187296e+00    5.131665e+03
  5.240414e+00    4.750903e+03
  5.293533e+00    4.526235e+03
  5.346651e+00    4.418165e+03
  5.399769e+00    4.347231e+03
  5.452887e+00    4.326496e+03
  5.506005e+00    4.205863e+03
  5.559123e+00    3.844890e+03
  5.612242e+00    3.657640e+03
  5.665360e+00    3.611697e+03
  5.718478e+00    3.579313e+03
  5.771596e+00    3.609361e+03
  5.824714e+00    3.699102e+03
  5.877832e+00    3.854559e+03
  5.930951e+00    4.066107e+03
  5.984069e+00    4.142443e+03
  6.037187e+00    4.010563e+03
  6.090305e+00    3.835506e+03
  6.143423e+00    3.770245e+03
  6.196541e+00    3.894149e+03
  6.249660e+00    4.045566e+03
  6.302778e+00    3.942935e+03
  6.355896e+00    3.673024e+03
  6.409014e+00    3.563970e+03
  6.462132e+00    3.497636e+03
  6.515250e+00    3.444789e+03
  6.568368e+00    3.464493e+03
  6.621487e+00    3.523351e+03
  6.674605e+00    3.604387e+03
  6.727723e+00    3.665348e+03
  6.780841e+00    3.553657e+03
  6.833959e+00    3.391220e+03
  6.887077e+00    3.287417e+03
  6.940196e+00    3.245769e+03
  6.993314e+00    3.286420e+03
  7.046432e+00    3.291033e+03
  7.099550e+00    3.215831e+03
  7.152668e+00    3.150498e+03
  7.205786e+00    3.100175e+03
  7.258905e+00    3.075026e+03
  7.312023e+00    3.129653e+03
  7.365141e+00    3.216007e+03
  7.418259e+00    3.272114e+03
  7.471377e+00    3.289296e+03
  7.524495e+00    3.338221e+03
  7.577614e+00    3.456442e+03
  7.630732e+00    3.521349e+03
  7.683850e+00    3.583142e+03
  7.736968e+00    3.661928e+03
  7.790086e+00    3.563959e+03
  7.843204e+00    3.373148e+03
  7.896322e+00    3.233136e+03
  7.949441e+00    3.175940e+03
  8.002559e+00    3.176374e+03
  8.055677e+00    3.150461e+03
  8.108795e+00    3.099294e+03
  8.161913e+00    3.056278e+03
  8.215031e+00    3.007111e+03
  8.268150e+00    2.956884e+03
  8.321268e+00    2.918881e+03
  8.374386e+00    2.897269e+03
  8.427504e+00    2.879020e+03
  8.480622e+00    2.864034e+03
  8.533740e+00    2.817294e+03
  8.586859e+00    2.850984e+03
  8.639977e+00    2.844215e+03
  8.693095e+00    2.826457e+03
  8.746213e+00    2.837417e+03
  8.799331e+00    2.826572e+03
  8.852449e+00    2.813747e+03
  8.905568e+00    2.816036e+03
  8.958686e+00    2.815375e+03
  9.011804e+00    2.810666e+03
  9.064922e+00    2.758580e+03
  9.118040e+00    2.719106e+03
  9.171158e+00    2.703289e+03
  9.224276e+00    2.669539e+03
  9.277395e+00    2.625899e+03
  9.330513e+00    2.596767e+03
  9.383631e+00    2.571830e+03
  9.436749e+00    2.557567e+03
  9.489867e+00    2.568541e+03
  9.542985e+00    2.571638e+03
  9.596104e+00    2.566174e+03
  9.649222e+00    2.574373e+03
  9.702340e+00    2.570734e+03
  9.755458e+00    2.556783e+03
  9.808576e+00    2.552261e+03
  9.861694e+00    2.552218e+03
  9.914813e+00    2.543613e+03
  9.967931e+00    2.524700e+03
  1.002105e+01    2.491294e+03
  1.007417e+01    2.461256e+03
  1.012729e+01    2.440273e+03
  1.018040e+01    2.427372e+03
  1.023352e+01    2.397818e+03
  1.028664e+01    2.363884e+03
  1.033976e+01    2.347412e+03
  1.039288e+01    2.369050e+03
  1.044599e+01    2.358196e+03
  1.049911e+01    2.355909e+03
  1.055223e+01    2.342940e+03
  1.060535e+01    2.347409e+03
  1.065847e+01    2.335707e+03
  1.071158e+01    2.327790e+03
  1.076470e+01    2.318436e+03
  1.081782e+01    2.316002e+03
  1.087094e+01    2.305778e+03
  1.092406e+01    2.315161e+03
  1.097718e+01    2.318656e+03
  1.103029e+01    2.317947e+03
  1.108341e+01    2.310035e+03
  1.113653e+01    2.294060e+03
  1.118965e+01    2.273928e+03
  1.124277e+01    2.259349e+03
  1.129588e+01    2.254912e+03
  1.134900e+01    2.246029e+03
  1.140212e+01    2.252134e+03
  1.145524e+01    2.253942e+03
  1.150836e+01    2.262177e+03
  1.156148e+01    2.258720e+03
  1.161459e+01    2.261592e+03
  1.166771e+01    2.248181e+03
  1.172083e+01    2.251036e+03
  1.177395e+01    2.231132e+03
  1.182707e+01    2.220352e+03
  1.188018e+01    2.223249e+03
  1.193330e+01    2.206304e+03
  1.198642e+01    2.190693e+03
  1.203954e+01    2.169401e+03
  1.209266e+01    2.161787e+03
  1.214578e+01    2.155975e+03
  1.219889e+01    2.159467e+03
  1.225201e+01    2.161204e+03
  1.230513e+01    2.154598e+03
  1.235825e+01    2.155165e+03
  1.241137e+01    2.138038e+03
  1.246448e+01    2.135313e+03
  1.251760e+01    2.131561e+03
  1.257072e+01    2.125509e+03
  1.262384e+01    2.131710e+03
  1.267696e+01    2.118743e+03
  1.273008e+01    2.102795e+03
  1.278319e+01    2.093485e+03
  1.283631e+01    2.084688e+03
  1.288943e+01    2.077417e+03
  1.294255e+01    2.066061e+03
  1.299567e+01    2.060921e+03
  1.304878e+01    2.056688e+03
  1.310190e+01    2.052754e+03
  1.315502e+01    2.049239e+03
  1.320814e+01    2.027009e+03
  1.326126e+01    2.003210e+03
  1.331437e+01    1.992973e+03
  1.336749e+01    1.987576e+03
  1.342061e+01    1.972798e+03
  1.347373e+01    1.999781e+03
  1.352685e+01    1.996351e+03
  1.357997e+01    1.985129e+03
  1.363308e+01    1.973299e+03
  1.368620e+01    1.967253e+03
  1.373932e+01    1.957982e+03
  1.379244e+01    1.954276e+03
  1.384556e+01    1.946263e+03
  1.389867e+01    1.936750e+03
  1.395179e+01    1.929413e+03
  1.400491e+01    1.923749e+03
  1.405803e+01    1.922729e+03
  1.411115e+01    1.914606e+03
  1.416427e+01    1.906772e+03
  1.421738e+01    1.902365e+03
  1.427050e+01    1.894137e+03
  1.432362e+01    1.894922e+03
  1.437674e+01    1.892161e+03
  1.442986e+01    1.882099e+03
  1.448297e+01    1.874353e+03
  1.453609e+01    1.865920e+03
  1.458921e+01    1.857219e+03
  1.464233e+01    1.853552e+03
  1.469545e+01    1.845574e+03
  1.474857e+01    1.827826e+03
  1.480168e+01    1.836150e+03
  1.485480e+01    1.833082e+03
  1.490792e+01    1.829539e+03
  1.496104e+01    1.822291e+03
  1.501416e+01    1.819989e+03
  1.506727e+01    1.816042e+03
  1.512039e+01    1.812636e+03
  1.517351e+01    1.824332e+03
  1.522663e+01    1.839205e+03
  1.527975e+01    1.835460e+03
  1.533286e+01    1.819864e+03
  1.538598e+01    1.810129e+03
  1.543910e+01    1.802492e+03
  1.549222e+01    1.799133e+03
  1.554534e+01    1.796997e+03
  1.559846e+01    1.794097e+03
  1.565157e+01    1.787861e+03
  1.570469e+01    1.782700e+03
  1.575781e+01    1.780139e+03
  1.581093e+01    1.775996e+03
  1.586405e+01    1.773211e+03
  1.591716e+01    1.768421e+03
  1.597028e+01    1.762972e+03
  1.602340e+01    1.746730e+03
  1.607652e+01    1.737492e+03
  1.612964e+01    1.713278e+03
  1.618276e+01    1.699732e+03
  1.623587e+01    1.702347e+03
  1.628899e+01    1.718647e+03
  1.634211e+01    1.715157e+03
  1.639523e+01    1.710088e+03
  1.644835e+01    1.713123e+03
  1.650146e+01    1.706801e+03
  1.655458e+01    1.705136e+03
  1.660770e+01    1.700203e+03
  1.666082e+01    1.695929e+03
  1.671394e+01    1.695485e+03
  1.676706e+01    1.690496e+03
  1.682017e+01    1.703640e+03
  1.687329e+01    1.692455e+03
  1.692641e+01    1.685870e+03
  1.697953e+01    1.681605e+03
  1.703265e+01    1.678672e+03
  1.708576e+01    1.677144e+03
  1.713888e+01    1.668948e+03
  1.719200e+01    1.666858e+03
  1.724512e+01    1.659506e+03
  1.729824e+01    1.659913e+03
  1.735136e+01    1.653591e+03
  1.740447e+01    1.630394e+03
  1.745759e+01    1.639387e+03
  1.751071e+01    1.639649e+03
  1.756383e+01    1.650820e+03
  1.761695e+01    1.634792e+03
  1.767006e+01    1.631870e+03
  1.772318e+01    1.624108e+03
  1.777630e+01    1.622598e+03
  1.782942e+01    1.613557e+03
  1.788254e+01    1.610518e+03
  1.793565e+01    1.606964e+03
  1.798877e+01    1.604711e+03
  1.804189e+01    1.598649e+03
  1.809501e+01    1.593683e+03
  1.814813e+01    1.590280e+03
  1.820125e+01    1.586177e+03
  1.825436e+01    1.591917e+03
  1.830748e+01    1.584968e+03
  1.836060e+01    1.579353e+03
  1.841372e+01    1.577789e+03
  1.846684e+01    1.571389e+03
  1.851995e+01    1.553227e+03
  1.857307e+01    1.537593e+03
  1.862619e+01    1.529842e+03
  1.867931e+01    1.524421e+03
  1.873243e+01    1.544368e+03
  1.878555e+01    1.547274e+03
  1.883866e+01    1.545515e+03
  1.889178e+01    1.544920e+03
  1.894490e+01    1.556172e+03
  1.899802e+01    1.546764e+03
  1.905114e+01    1.541758e+03
  1.910425e+01    1.537821e+03
  1.915737e+01    1.532410e+03
  1.921049e+01    1.528609e+03
  1.926361e+01    1.525335e+03
  1.931673e+01    1.521531e+03
  1.936985e+01    1.519807e+03
  1.942296e+01    1.516952e+03
  1.947608e+01    1.516806e+03
  1.952920e+01    1.512851e+03
  1.958232e+01    1.512705e+03
  1.963544e+01    1.517844e+03
  1.968855e+01    1.504069e+03
  1.974167e+01    1.491502e+03
  1.979479e+01    1.496902e+03
  1.984791e+01    1.496523e+03
  1.990103e+01    1.493086e+03
  1.995414e+01    1.491222e+03
  2.000726e+01    1.488696e+03
  2.006038e+01    1.483752e+03
  2.011350e+01    1.481133e+03
  2.016662e+01    1.474293e+03
  2.021974e+01    1.477715e+03
  2.027285e+01    1.483750e+03
  2.032597e+01    1.469332e+03
  2.037909e+01    1.463317e+03
  2.043221e+01    1.458724e+03
  2.048533e+01    1.457710e+03
  2.053844e+01    1.456676e+03
  2.059156e+01    1.450426e+03
  2.064468e+01    1.447501e+03
  2.069780e+01    1.428569e+03
  2.075092e+01    1.403963e+03
  2.080404e+01    1.390260e+03
  2.085715e+01    1.409321e+03
  2.091027e+01    1.436390e+03
  2.096339e+01    1.443730e+03
  2.101651e+01    1.448416e+03
  2.106963e+01    1.452735e+03
  2.112274e+01    1.454970e+03
  2.117586e+01    1.456462e+03
  2.122898e+01    1.458977e+03
  2.128210e+01    1.457883e+03
  2.133522e+01    1.457223e+03
  2.138834e+01    1.455808e+03
  2.144145e+01    1.456019e+03
  2.149457e+01    1.454615e+03
  2.154769e+01    1.455330e+03
  2.160081e+01    1.452690e+03
  2.165393e+01    1.454248e+03
  2.170704e+01    1.455045e+03
  2.176016e+01    1.443905e+03
  2.181328e+01    1.452923e+03
  2.186640e+01    1.453617e+03
  2.191952e+01    1.452215e+03
  2.197263e+01    1.449134e+03
  2.202575e+01    1.448894e+03
  2.207887e+01    1.447466e+03
  2.213199e+01    1.445310e+03
  2.218511e+01    1.444347e+03
  2.223823e+01    1.444990e+03
  2.229134e+01    1.442534e+03
  2.234446e+01    1.441360e+03
  2.239758e+01    1.440075e+03
  2.245070e+01    1.437249e+03
  2.250382e+01    1.439838e+03
  2.255693e+01    1.437367e+03
  2.261005e+01    1.418820e+03
  2.266317e+01    1.405864e+03
  2.271629e+01    1.397468e+03
  2.276941e+01    1.388255e+03
  2.282253e+01    1.379856e+03
  2.287564e+01    1.376451e+03
  2.292876e+01    1.371411e+03
  2.298188e+01    1.369209e+03
  2.303500e+01    1.368865e+03
  2.308812e+01    1.364660e+03
  2.314123e+01    1.361321e+03
  2.319435e+01    1.358311e+03
  2.324747e+01    1.351083e+03
  2.330059e+01    1.346454e+03
  2.335371e+01    1.344209e+03
  2.340683e+01    1.341021e+03
  2.345994e+01    1.338678e+03
  2.351306e+01    1.334378e+03
  2.356618e+01    1.329009e+03
  2.361930e+01    1.322897e+03
  2.367242e+01    1.317712e+03
  2.372553e+01    1.313644e+03
  2.377865e+01    1.307222e+03
  2.383177e+01    1.303720e+03
  2.388489e+01    1.297108e+03
  2.393801e+01    1.294352e+03
  2.399113e+01    1.293370e+03
  2.404424e+01    1.291399e+03
  2.409736e+01    1.291194e+03
  2.415048e+01    1.286163e+03
  2.420360e+01    1.283380e+03
  2.425672e+01    1.279592e+03
  2.430983e+01    1.277174e+03
  2.436295e+01    1.276306e+03
  2.441607e+01    1.276295e+03
  2.446919e+01    1.273268e+03
  2.452231e+01    1.271564e+03
  2.457542e+01    1.265785e+03
  2.462854e+01    1.264236e+03
  2.468166e+01    1.265194e+03
  2.473478e+01    1.260121e+03
  2.478790e+01    1.251718e+03
  2.484102e+01    1.249620e+03
  2.489413e+01    1.244319e+03
  2.494725e+01    1.241275e+03
  2.500037e+01    1.235820e+03
  2.505349e+01    1.230141e+03
  2.510661e+01    1.225691e+03
  2.515972e+01    1.222724e+03
  2.521284e+01    1.223605e+03
  2.526596e+01    1.222199e+03
  2.531908e+01    1.217534e+03
  2.537220e+01    1.216996e+03
  2.542532e+01    1.216406e+03
  2.547843e+01    1.210813e+03
  2.553155e+01    1.206397e+03
  2.558467e+01    1.199454e+03
  2.563779e+01    1.192396e+03
  2.569091e+01    1.186627e+03
  2.574402e+01    1.177258e+03
  2.579714e+01    1.173008e+03
  2.585026e+01    1.166363e+03
  2.590338e+01    1.155804e+03
  2.595650e+01    1.152599e+03
  2.600962e+01    1.153583e+03
  2.606273e+01    1.152676e+03
  2.611585e+01    1.149124e+03
  2.616897e+01    1.149710e+03
  2.622209e+01    1.147763e+03
  2.627521e+01    1.145806e+03
  2.632832e+01    1.136492e+03
  2.638144e+01    1.135285e+03
  2.643456e+01    1.130114e+03
  2.648768e+01    1.109395e+03
  2.654080e+01    1.076464e+03
