# == pyFAI calibration ==
# Distance Sample to Detector: 0.2946421923531691 m
# PONI: 2.875e-01, 2.439e-01 m
# Rotations: -0.010990 -0.009181 0.000003 rad
# 
# == Fit2d calibration ==
# Distance Sample-beamCenter: 294.672 mm
# Center: x=1436.809, y=1655.851 pix
# Tilt: 0.820 deg  TiltPlanRot: -39.874 deg
# 
# Detector Pilatus 2M	 PixelSize= 1.720e-04, 1.720e-04 m
#    Detector has a mask: True 
#    Detector has a dark current: False 
#    detector has a flat field: False 
# 
# Wavelength: 2.0732883349524408e-11 m
# Mask applied: from detector
# Dark current applied: False
# Flat field applied: False
# Polarization factor: None
# Normalization factor: 1.0
# --> /gpfs/current/raw/FMue_3/FMue_3_20231024_175355_00022.dat
#       2th_deg             I 
  6.762477e-02             nan
  1.715822e-01             nan
  2.755396e-01             nan
  3.794971e-01             nan
  4.834545e-01             nan
  5.874120e-01             nan
  6.913694e-01             nan
  7.953268e-01    9.645622e+03
  8.992843e-01    8.935102e+03
  1.003242e+00    8.089036e+03
  1.107199e+00    7.902679e+03
  1.211157e+00    7.952229e+03
  1.315114e+00    8.155182e+03
  1.419071e+00    9.018471e+03
  1.523029e+00    2.229143e+04
  1.626986e+00    2.407771e+04
  1.730944e+00    1.013014e+04
  1.834901e+00    9.696960e+03
  1.938859e+00    1.017892e+04
  2.042816e+00    9.942981e+03
  2.146774e+00    1.017009e+04
  2.250731e+00    1.080428e+04
  2.354688e+00    1.177965e+04
  2.458646e+00    1.280062e+04
  2.562603e+00    1.364703e+04
  2.666561e+00    1.443972e+04
  2.770518e+00    1.469826e+04
  2.874476e+00    1.466667e+04
  2.978433e+00    1.419683e+04
  3.082390e+00    1.644384e+04
  3.186348e+00    1.763815e+04
  3.290305e+00    1.214454e+04
  3.394263e+00    1.045392e+04
  3.498220e+00    9.693413e+03
  3.602178e+00    9.225313e+03
  3.706135e+00    9.146664e+03
  3.810093e+00    8.589524e+03
  3.914050e+00    7.963775e+03
  4.018007e+00    7.853328e+03
  4.121965e+00    8.062334e+03
  4.225922e+00    8.214666e+03
  4.329880e+00    8.428697e+03
  4.433837e+00    8.101441e+03
  4.537795e+00    1.167805e+04
  4.641752e+00    1.166079e+04
  4.745709e+00    8.061988e+03
  4.849667e+00    8.604838e+03
  4.953624e+00    8.990088e+03
  5.057582e+00    8.591005e+03
  5.161539e+00    1.221329e+04
  5.265497e+00    9.433081e+03
  5.369454e+00    6.042616e+03
  5.473412e+00    5.474947e+03
  5.577369e+00    5.275703e+03
  5.681326e+00    5.339926e+03
  5.785284e+00    6.138125e+03
  5.889241e+00    7.794396e+03
  5.993199e+00    8.875245e+03
  6.097156e+00    1.079506e+04
  6.201114e+00    9.493554e+03
  6.305071e+00    6.128125e+03
  6.409028e+00    5.916703e+03
  6.512986e+00    5.276929e+03
  6.616943e+00    5.058454e+03
  6.720901e+00    4.979540e+03
  6.824858e+00    5.379989e+03
  6.928816e+00    6.306032e+03
  7.032773e+00    5.176505e+03
  7.136731e+00    4.986408e+03
  7.240688e+00    5.417452e+03
  7.344645e+00    5.984224e+03
  7.448603e+00    5.254322e+03
  7.552560e+00    5.262703e+03
  7.656518e+00    6.214747e+03
  7.760475e+00    8.258458e+03
  7.864433e+00    8.457088e+03
  7.968390e+00    7.728634e+03
  8.072347e+00    6.268894e+03
  8.176305e+00    7.136750e+03
  8.280262e+00    7.522750e+03
  8.384220e+00    9.682094e+03
  8.488177e+00    1.184082e+04
  8.592135e+00    1.026462e+04
  8.696092e+00    6.558896e+03
  8.800050e+00    5.268184e+03
  8.904007e+00    5.308684e+03
  9.007964e+00    6.036301e+03
  9.111922e+00    5.740536e+03
  9.215879e+00    5.356041e+03
  9.319837e+00    5.799430e+03
  9.423794e+00    5.677235e+03
  9.527752e+00    5.915498e+03
  9.631709e+00    5.616784e+03
  9.735666e+00    5.171993e+03
  9.839624e+00    5.209369e+03
  9.943581e+00    5.274538e+03
  1.004754e+01    4.823041e+03
  1.015150e+01    4.433487e+03
  1.025545e+01    4.314258e+03
  1.035941e+01    4.565451e+03
  1.046337e+01    4.459745e+03
  1.056733e+01    3.951156e+03
  1.067128e+01    3.973541e+03
  1.077524e+01    3.690312e+03
  1.087920e+01    3.545280e+03
  1.098316e+01    3.666928e+03
  1.108711e+01    3.709778e+03
  1.119107e+01    3.660613e+03
  1.129503e+01    3.865021e+03
  1.139899e+01    3.802584e+03
  1.150294e+01    3.785474e+03
  1.160690e+01    3.763514e+03
  1.171086e+01    3.707200e+03
  1.181482e+01    4.090613e+03
  1.191877e+01    4.419492e+03
  1.202273e+01    4.017596e+03
  1.212669e+01    4.149508e+03
  1.223064e+01    4.057549e+03
  1.233460e+01    3.895556e+03
  1.243856e+01    3.699029e+03
  1.254252e+01    3.721722e+03
  1.264647e+01    3.657271e+03
  1.275043e+01    3.456427e+03
  1.285439e+01    3.406117e+03
  1.295835e+01    3.482733e+03
  1.306230e+01    3.381906e+03
  1.316626e+01    3.410073e+03
  1.327022e+01    3.439593e+03
  1.337418e+01    3.503430e+03
  1.347813e+01    3.777883e+03
  1.358209e+01    3.658816e+03
  1.368605e+01    3.423618e+03
  1.379001e+01    3.329636e+03
  1.389396e+01    3.197157e+03
  1.399792e+01    3.156391e+03
  1.410188e+01    3.120859e+03
  1.420584e+01    3.192870e+03
  1.430979e+01    3.265665e+03
  1.441375e+01    3.282439e+03
  1.451771e+01    3.415769e+03
  1.462167e+01    3.636178e+03
  1.472562e+01    3.750556e+03
  1.482958e+01    3.726939e+03
  1.493354e+01    3.440532e+03
  1.503750e+01    3.128443e+03
  1.514145e+01    3.032943e+03
  1.524541e+01    3.002323e+03
  1.534937e+01    3.015471e+03
  1.545333e+01    3.123506e+03
  1.555728e+01    3.310546e+03
  1.566124e+01    3.197642e+03
  1.576520e+01    3.033092e+03
  1.586916e+01    3.059309e+03
  1.597311e+01    3.012418e+03
  1.607707e+01    2.972497e+03
  1.618103e+01    3.017881e+03
  1.628498e+01    3.059939e+03
  1.638894e+01    3.047354e+03
  1.649290e+01    2.983737e+03
  1.659686e+01    2.951088e+03
  1.670081e+01    2.944023e+03
  1.680477e+01    2.897320e+03
  1.690873e+01    2.880122e+03
  1.701269e+01    2.945932e+03
  1.711664e+01    2.940565e+03
  1.722060e+01    2.861414e+03
  1.732456e+01    2.753480e+03
  1.742852e+01    2.765424e+03
  1.753247e+01    2.773026e+03
  1.763643e+01    2.717012e+03
  1.774039e+01    2.698796e+03
  1.784435e+01    2.684453e+03
  1.794830e+01    2.677544e+03
  1.805226e+01    2.695261e+03
  1.815622e+01    2.708718e+03
  1.826018e+01    2.699260e+03
  1.836413e+01    2.633027e+03
  1.846809e+01    2.646115e+03
  1.857205e+01    2.623088e+03
  1.867601e+01    2.594422e+03
  1.877996e+01    2.595392e+03
  1.888392e+01    2.610877e+03
  1.898788e+01    2.599129e+03
  1.909184e+01    2.577123e+03
  1.919579e+01    2.509476e+03
  1.929975e+01    2.484415e+03
  1.940371e+01    2.487214e+03
  1.950767e+01    2.475853e+03
  1.961162e+01    2.485541e+03
  1.971558e+01    2.505922e+03
  1.981954e+01    2.479133e+03
  1.992350e+01    2.484402e+03
  2.002745e+01    2.480282e+03
  2.013141e+01    2.462667e+03
  2.023537e+01    2.441717e+03
  2.033933e+01    2.433895e+03
  2.044328e+01    2.422558e+03
  2.054724e+01    2.444878e+03
  2.065120e+01    2.467978e+03
  2.075515e+01    2.445997e+03
  2.085911e+01    2.436385e+03
  2.096307e+01    2.401811e+03
  2.106703e+01    2.380282e+03
  2.117098e+01    2.375257e+03
  2.127494e+01    2.357529e+03
  2.137890e+01    2.346712e+03
  2.148286e+01    2.345991e+03
  2.158681e+01    2.339913e+03
  2.169077e+01    2.319197e+03
  2.179473e+01    2.293372e+03
  2.189869e+01    2.291825e+03
  2.200264e+01    2.307524e+03
  2.210660e+01    2.306538e+03
  2.221056e+01    2.301303e+03
  2.231452e+01    2.314256e+03
  2.241847e+01    2.297678e+03
  2.252243e+01    2.313784e+03
  2.262639e+01    2.318655e+03
  2.273035e+01    2.313711e+03
  2.283430e+01    2.290901e+03
  2.293826e+01    2.263671e+03
  2.304222e+01    2.254789e+03
  2.314618e+01    2.247715e+03
  2.325013e+01    2.249976e+03
  2.335409e+01    2.263083e+03
  2.345805e+01    2.273239e+03
  2.356201e+01    2.268881e+03
  2.366596e+01    2.253025e+03
  2.376992e+01    2.252959e+03
  2.387388e+01    2.257275e+03
  2.397784e+01    2.254947e+03
  2.408179e+01    2.248646e+03
  2.418575e+01    2.231726e+03
  2.428971e+01    2.220057e+03
  2.439367e+01    2.199815e+03
  2.449762e+01    2.186140e+03
  2.460158e+01    2.175313e+03
  2.470554e+01    2.165937e+03
  2.480949e+01    2.157848e+03
  2.491345e+01    2.155313e+03
  2.501741e+01    2.152039e+03
  2.512137e+01    2.148255e+03
  2.522532e+01    2.109339e+03
  2.532928e+01    2.084822e+03
  2.543324e+01    2.068135e+03
  2.553720e+01    2.055127e+03
  2.564115e+01    2.051796e+03
  2.574511e+01    2.080193e+03
  2.584907e+01    2.071956e+03
  2.595303e+01    2.066847e+03
  2.605698e+01    2.053153e+03
  2.616094e+01    2.039296e+03
  2.626490e+01    2.024934e+03
  2.636886e+01    2.019545e+03
  2.647281e+01    2.015367e+03
  2.657677e+01    2.011672e+03
  2.668073e+01    2.010122e+03
  2.678469e+01    2.004217e+03
  2.688864e+01    1.995091e+03
  2.699260e+01    1.987217e+03
  2.709656e+01    1.989069e+03
  2.720052e+01    1.980810e+03
  2.730447e+01    1.976772e+03
  2.740843e+01    1.991727e+03
  2.751239e+01    1.978634e+03
  2.761635e+01    1.965561e+03
  2.772030e+01    1.957965e+03
  2.782426e+01    1.947808e+03
  2.792822e+01    1.941246e+03
  2.803218e+01    1.936940e+03
  2.813613e+01    1.927598e+03
  2.824009e+01    1.930376e+03
  2.834405e+01    1.934290e+03
  2.844801e+01    1.925710e+03
  2.855196e+01    1.916942e+03
  2.865592e+01    1.911340e+03
  2.875988e+01    1.906556e+03
  2.886383e+01    1.901357e+03
  2.896779e+01    1.905844e+03
  2.907175e+01    1.925729e+03
  2.917571e+01    1.926729e+03
  2.927966e+01    1.910942e+03
  2.938362e+01    1.898281e+03
  2.948758e+01    1.887212e+03
  2.959154e+01    1.882459e+03
  2.969549e+01    1.883985e+03
  2.979945e+01    1.886621e+03
  2.990341e+01    1.878801e+03
  3.000737e+01    1.870818e+03
  3.011132e+01    1.864732e+03
  3.021528e+01    1.859363e+03
  3.031924e+01    1.859310e+03
  3.042320e+01    1.852665e+03
  3.052715e+01    1.845069e+03
  3.063111e+01    1.829760e+03
  3.073507e+01    1.822083e+03
  3.083903e+01    1.797712e+03
  3.094298e+01    1.783933e+03
  3.104694e+01    1.777812e+03
  3.115090e+01    1.799117e+03
  3.125486e+01    1.801773e+03
  3.135881e+01    1.798234e+03
  3.146277e+01    1.797632e+03
  3.156673e+01    1.794583e+03
  3.167069e+01    1.793563e+03
  3.177464e+01    1.791895e+03
  3.187860e+01    1.784549e+03
  3.198256e+01    1.778969e+03
  3.208652e+01    1.778333e+03
  3.219047e+01    1.786721e+03
  3.229443e+01    1.779571e+03
  3.239839e+01    1.772457e+03
  3.250235e+01    1.767005e+03
  3.260630e+01    1.764659e+03
  3.271026e+01    1.760899e+03
  3.281422e+01    1.757259e+03
  3.291817e+01    1.750781e+03
  3.302213e+01    1.746597e+03
  3.312609e+01    1.742481e+03
  3.323005e+01    1.737114e+03
  3.333400e+01    1.719911e+03
  3.343796e+01    1.722035e+03
  3.354192e+01    1.719515e+03
  3.364588e+01    1.733239e+03
  3.374983e+01    1.716735e+03
  3.385379e+01    1.713322e+03
  3.395775e+01    1.702763e+03
  3.406171e+01    1.703413e+03
  3.416566e+01    1.697041e+03
  3.426962e+01    1.691813e+03
  3.437358e+01    1.689693e+03
  3.447754e+01    1.683745e+03
  3.458149e+01    1.681810e+03
  3.468545e+01    1.677783e+03
  3.478941e+01    1.668413e+03
  3.489337e+01    1.669438e+03
  3.499732e+01    1.663461e+03
  3.510128e+01    1.674773e+03
  3.520524e+01    1.658719e+03
  3.530920e+01    1.659752e+03
  3.541315e+01    1.656521e+03
  3.551711e+01    1.647644e+03
  3.562107e+01    1.627577e+03
  3.572503e+01    1.610695e+03
  3.582898e+01    1.604625e+03
  3.593294e+01    1.611494e+03
  3.603690e+01    1.622818e+03
  3.614086e+01    1.624416e+03
  3.624481e+01    1.625627e+03
  3.634877e+01    1.625483e+03
  3.645273e+01    1.637481e+03
  3.655669e+01    1.625555e+03
  3.666064e+01    1.618536e+03
  3.676460e+01    1.612528e+03
  3.686856e+01    1.606975e+03
  3.697252e+01    1.604463e+03
  3.707647e+01    1.602451e+03
  3.718043e+01    1.599568e+03
  3.728439e+01    1.596649e+03
  3.738834e+01    1.593453e+03
  3.749230e+01    1.592799e+03
  3.759626e+01    1.590616e+03
  3.770022e+01    1.590470e+03
  3.780417e+01    1.594973e+03
  3.790813e+01    1.582311e+03
  3.801209e+01    1.567532e+03
  3.811605e+01    1.574075e+03
  3.822000e+01    1.572006e+03
  3.832396e+01    1.567854e+03
  3.842792e+01    1.567242e+03
  3.853188e+01    1.563047e+03
  3.863583e+01    1.561413e+03
  3.873979e+01    1.556692e+03
  3.884375e+01    1.553492e+03
  3.894771e+01    1.547910e+03
  3.905166e+01    1.564164e+03
  3.915562e+01    1.546605e+03
  3.925958e+01    1.539673e+03
  3.936354e+01    1.536476e+03
  3.946749e+01    1.532750e+03
  3.957145e+01    1.534004e+03
  3.967541e+01    1.529782e+03
  3.977937e+01    1.526534e+03
  3.988332e+01    1.518721e+03
  3.998728e+01    1.487767e+03
  4.009124e+01    1.471397e+03
  4.019520e+01    1.466923e+03
  4.029915e+01    1.495704e+03
  4.040311e+01    1.517570e+03
  4.050707e+01    1.520280e+03
  4.061103e+01    1.525548e+03
  4.071498e+01    1.528642e+03
  4.081894e+01    1.531350e+03
  4.092290e+01    1.534034e+03
  4.102686e+01    1.535774e+03
  4.113081e+01    1.533445e+03
  4.123477e+01    1.532638e+03
  4.133873e+01    1.531075e+03
  4.144268e+01    1.530721e+03
  4.154664e+01    1.534409e+03
  4.165060e+01    1.531774e+03
  4.175456e+01    1.530498e+03
  4.185851e+01    1.530986e+03
  4.196247e+01    1.531701e+03
  4.206643e+01    1.519624e+03
  4.217039e+01    1.528526e+03
  4.227434e+01    1.530999e+03
  4.237830e+01    1.528933e+03
  4.248226e+01    1.524413e+03
  4.258622e+01    1.524936e+03
  4.269017e+01    1.523258e+03
  4.279413e+01    1.521371e+03
  4.289809e+01    1.520236e+03
  4.300205e+01    1.519285e+03
  4.310600e+01    1.517425e+03
  4.320996e+01    1.516541e+03
  4.331392e+01    1.518785e+03
  4.341788e+01    1.513397e+03
  4.352183e+01    1.513462e+03
  4.362579e+01    1.514667e+03
  4.372975e+01    1.507160e+03
  4.383371e+01    1.489660e+03
  4.393766e+01    1.476879e+03
  4.404162e+01    1.469601e+03
  4.414558e+01    1.460676e+03
  4.424954e+01    1.453436e+03
  4.435349e+01    1.447869e+03
  4.445745e+01    1.444022e+03
  4.456141e+01    1.442398e+03
  4.466537e+01    1.438821e+03
  4.476932e+01    1.435752e+03
  4.487328e+01    1.434775e+03
  4.497724e+01    1.429702e+03
  4.508120e+01    1.422951e+03
  4.518515e+01    1.417721e+03
  4.528911e+01    1.418363e+03
  4.539307e+01    1.413627e+03
  4.549702e+01    1.409257e+03
  4.560098e+01    1.405777e+03
  4.570494e+01    1.402427e+03
  4.580890e+01    1.397530e+03
  4.591285e+01    1.395085e+03
  4.601681e+01    1.386825e+03
  4.612077e+01    1.379549e+03
  4.622473e+01    1.378328e+03
  4.632868e+01    1.373125e+03
  4.643264e+01    1.368291e+03
  4.653660e+01    1.366031e+03
  4.664056e+01    1.361494e+03
  4.674451e+01    1.362483e+03
  4.684847e+01    1.359368e+03
  4.695243e+01    1.355339e+03
  4.705639e+01    1.351117e+03
  4.716034e+01    1.349994e+03
  4.726430e+01    1.344686e+03
  4.736826e+01    1.342057e+03
  4.747222e+01    1.341572e+03
  4.757617e+01    1.338683e+03
  4.768013e+01    1.339679e+03
  4.778409e+01    1.337785e+03
  4.788805e+01    1.335476e+03
  4.799200e+01    1.331867e+03
  4.809596e+01    1.329517e+03
  4.819992e+01    1.326542e+03
  4.830388e+01    1.320307e+03
  4.840783e+01    1.314159e+03
  4.851179e+01    1.309986e+03
  4.861575e+01    1.307320e+03
  4.871971e+01    1.302103e+03
  4.882366e+01    1.299079e+03
  4.892762e+01    1.293081e+03
  4.903158e+01    1.289414e+03
  4.913554e+01    1.286320e+03
  4.923949e+01    1.287856e+03
  4.934345e+01    1.283034e+03
  4.944741e+01    1.280286e+03
  4.955136e+01    1.278910e+03
  4.965532e+01    1.274129e+03
  4.975928e+01    1.275691e+03
  4.986324e+01    1.263069e+03
  4.996719e+01    1.258033e+03
  5.007115e+01    1.252877e+03
  5.017511e+01    1.245590e+03
  5.027907e+01    1.240821e+03
  5.038302e+01    1.233697e+03
  5.048698e+01    1.225423e+03
  5.059094e+01    1.213198e+03
  5.069490e+01    1.216135e+03
  5.079885e+01    1.213213e+03
  5.090281e+01    1.214204e+03
  5.100677e+01    1.211456e+03
  5.111073e+01    1.209446e+03
  5.121468e+01    1.215556e+03
  5.131864e+01    1.207577e+03
  5.142260e+01    1.198937e+03
  5.152656e+01    1.198283e+03
  5.163051e+01    1.200668e+03
  5.173447e+01    1.182849e+03
  5.183843e+01    1.164322e+03
  5.194239e+01    1.144845e+03
