# == pyFAI calibration ==
# Distance Sample to Detector: 0.2946421923531691 m
# PONI: 2.875e-01, 2.439e-01 m
# Rotations: -0.010990 -0.009181 0.000003 rad
# 
# == Fit2d calibration ==
# Distance Sample-beamCenter: 294.672 mm
# Center: x=1436.809, y=1655.851 pix
# Tilt: 0.820 deg  TiltPlanRot: -39.874 deg
# 
# Detector Pilatus 2M	 PixelSize= 1.720e-04, 1.720e-04 m
#    Detector has a mask: True 
#    Detector has a dark current: False 
#    detector has a flat field: False 
# 
# Wavelength: 2.0732883349524408e-11 m
# Mask applied: from detector
# Dark current applied: False
# Flat field applied: False
# Polarization factor: None
# Normalization factor: 1.0
# --> /gpfs/current/raw/FMue_3/FMue_3_20231024_175355_00127.dat
#        q_A^-1             I 
  3.483473e-02             nan
  8.795289e-02             nan
  1.410711e-01             nan
  1.941892e-01             nan
  2.473074e-01             nan
  3.004255e-01             nan
  3.535437e-01             nan
  4.066619e-01    1.264281e+04
  4.597800e-01    1.164682e+04
  5.128982e-01    9.879362e+03
  5.660163e-01    8.920263e+03
  6.191345e-01    8.512671e+03
  6.722527e-01    8.339297e+03
  7.253708e-01    8.343680e+03
  7.784890e-01    8.387051e+03
  8.316071e-01    8.550880e+03
  8.847253e-01    8.739817e+03
  9.378435e-01    9.113394e+03
  9.909616e-01    9.611714e+03
  1.044080e+00    9.738127e+03
  1.097198e+00    9.727523e+03
  1.150316e+00    1.015952e+04
  1.203434e+00    1.083073e+04
  1.256552e+00    1.170175e+04
  1.309671e+00    1.279767e+04
  1.362789e+00    1.385016e+04
  1.415907e+00    1.435643e+04
  1.469025e+00    1.442949e+04
  1.522143e+00    1.427384e+04
  1.575261e+00    1.366283e+04
  1.628380e+00    1.292368e+04
  1.681498e+00    1.199284e+04
  1.734616e+00    1.104215e+04
  1.787734e+00    1.021256e+04
  1.840852e+00    9.533340e+03
  1.893970e+00    9.029314e+03
  1.947089e+00    8.871651e+03
  2.000207e+00    8.610635e+03
  2.053325e+00    8.228060e+03
  2.106443e+00    8.389860e+03
  2.159561e+00    8.944953e+03
  2.212679e+00    9.223519e+03
  2.265797e+00    9.180240e+03
  2.318916e+00    8.631871e+03
  2.372034e+00    7.955313e+03
  2.425152e+00    8.203208e+03
  2.478270e+00    9.346130e+03
  2.531388e+00    1.149391e+04
  2.584506e+00    1.254185e+04
  2.637625e+00    1.092053e+04
  2.690743e+00    9.043548e+03
  2.743861e+00    7.937044e+03
  2.796979e+00    6.564544e+03
  2.850097e+00    5.622398e+03
  2.903215e+00    5.306511e+03
  2.956334e+00    5.243434e+03
  3.009452e+00    5.559439e+03
  3.062570e+00    6.793087e+03
  3.115688e+00    9.098166e+03
  3.168806e+00    9.223837e+03
  3.221924e+00    7.483728e+03
  3.275043e+00    5.984654e+03
  3.328161e+00    5.243209e+03
  3.381279e+00    5.131326e+03
  3.434397e+00    5.033673e+03
  3.487515e+00    4.892906e+03
  3.540633e+00    4.789703e+03
  3.593751e+00    4.670439e+03
  3.646870e+00    4.695193e+03
  3.699988e+00    4.850099e+03
  3.753106e+00    5.065816e+03
  3.806224e+00    5.246449e+03
  3.859342e+00    5.367982e+03
  3.912460e+00    5.624203e+03
  3.965579e+00    6.149683e+03
  4.018697e+00    6.805474e+03
  4.071815e+00    7.127168e+03
  4.124933e+00    6.876659e+03
  4.178051e+00    6.485670e+03
  4.231169e+00    6.314634e+03
  4.284288e+00    6.660748e+03
  4.337406e+00    7.907670e+03
  4.390524e+00    9.668447e+03
  4.443642e+00    1.181370e+04
  4.496760e+00    1.248556e+04
  4.549878e+00    8.829007e+03
  4.602997e+00    5.992820e+03
  4.656115e+00    5.328909e+03
  4.709233e+00    5.171710e+03
  4.762351e+00    5.199060e+03
  4.815469e+00    5.172656e+03
  4.868587e+00    5.164726e+03
  4.921705e+00    5.211287e+03
  4.974824e+00    5.308924e+03
  5.027942e+00    5.386134e+03
  5.081060e+00    5.502782e+03
  5.134178e+00    5.418782e+03
  5.187296e+00    5.137771e+03
  5.240414e+00    4.795742e+03
  5.293533e+00    4.568186e+03
  5.346651e+00    4.432683e+03
  5.399769e+00    4.346468e+03
  5.452887e+00    4.329181e+03
  5.506005e+00    4.258070e+03
  5.559123e+00    3.908552e+03
  5.612242e+00    3.678383e+03
  5.665360e+00    3.606005e+03
  5.718478e+00    3.544760e+03
  5.771596e+00    3.544536e+03
  5.824714e+00    3.621411e+03
  5.877832e+00    3.760696e+03
  5.930951e+00    3.943063e+03
  5.984069e+00    4.044683e+03
  6.037187e+00    3.983430e+03
  6.090305e+00    3.837758e+03
  6.143423e+00    3.735870e+03
  6.196541e+00    3.823845e+03
  6.249660e+00    3.992646e+03
  6.302778e+00    3.927982e+03
  6.355896e+00    3.656321e+03
  6.409014e+00    3.536152e+03
  6.462132e+00    3.465186e+03
  6.515250e+00    3.410658e+03
  6.568368e+00    3.431792e+03
  6.621487e+00    3.473950e+03
  6.674605e+00    3.541542e+03
  6.727723e+00    3.603339e+03
  6.780841e+00    3.551295e+03
  6.833959e+00    3.433756e+03
  6.887077e+00    3.315702e+03
  6.940196e+00    3.256825e+03
  6.993314e+00    3.291443e+03
  7.046432e+00    3.297888e+03
  7.099550e+00    3.213720e+03
  7.152668e+00    3.145542e+03
  7.205786e+00    3.094628e+03
  7.258905e+00    3.061562e+03
  7.312023e+00    3.104945e+03
  7.365141e+00    3.174679e+03
  7.418259e+00    3.230858e+03
  7.471377e+00    3.267294e+03
  7.524495e+00    3.318432e+03
  7.577614e+00    3.414450e+03
  7.630732e+00    3.487542e+03
  7.683850e+00    3.569055e+03
  7.736968e+00    3.666160e+03
  7.790086e+00    3.571176e+03
  7.843204e+00    3.369013e+03
  7.896322e+00    3.206333e+03
  7.949441e+00    3.134504e+03
  8.002559e+00    3.127440e+03
  8.055677e+00    3.117605e+03
  8.108795e+00    3.092314e+03
  8.161913e+00    3.054622e+03
  8.215031e+00    2.996883e+03
  8.268150e+00    2.939705e+03
  8.321268e+00    2.901763e+03
  8.374386e+00    2.875567e+03
  8.427504e+00    2.855622e+03
  8.480622e+00    2.837516e+03
  8.533740e+00    2.787759e+03
  8.586859e+00    2.821139e+03
  8.639977e+00    2.819681e+03
  8.693095e+00    2.808341e+03
  8.746213e+00    2.810386e+03
  8.799331e+00    2.801758e+03
  8.852449e+00    2.793738e+03
  8.905568e+00    2.803264e+03
  8.958686e+00    2.803859e+03
  9.011804e+00    2.803258e+03
  9.064922e+00    2.742632e+03
  9.118040e+00    2.694023e+03
  9.171158e+00    2.676934e+03
  9.224276e+00    2.657241e+03
  9.277395e+00    2.617238e+03
  9.330513e+00    2.592427e+03
  9.383631e+00    2.572860e+03
  9.436749e+00    2.555572e+03
  9.489867e+00    2.560009e+03
  9.542985e+00    2.561763e+03
  9.596104e+00    2.551921e+03
  9.649222e+00    2.551398e+03
  9.702340e+00    2.553641e+03
  9.755458e+00    2.541757e+03
  9.808576e+00    2.537662e+03
  9.861694e+00    2.540408e+03
  9.914813e+00    2.536048e+03
  9.967931e+00    2.515387e+03
  1.002105e+01    2.476542e+03
  1.007417e+01    2.443127e+03
  1.012729e+01    2.422804e+03
  1.018040e+01    2.418159e+03
  1.023352e+01    2.393770e+03
  1.028664e+01    2.359253e+03
  1.033976e+01    2.344130e+03
  1.039288e+01    2.359619e+03
  1.044599e+01    2.347525e+03
  1.049911e+01    2.345528e+03
  1.055223e+01    2.331111e+03
  1.060535e+01    2.330528e+03
  1.065847e+01    2.321333e+03
  1.071158e+01    2.314911e+03
  1.076470e+01    2.305883e+03
  1.081782e+01    2.306364e+03
  1.087094e+01    2.293929e+03
  1.092406e+01    2.301924e+03
  1.097718e+01    2.305237e+03
  1.103029e+01    2.302771e+03
  1.108341e+01    2.300458e+03
  1.113653e+01    2.288782e+03
  1.118965e+01    2.271050e+03
  1.124277e+01    2.253987e+03
  1.129588e+01    2.247611e+03
  1.134900e+01    2.238769e+03
  1.140212e+01    2.238966e+03
  1.145524e+01    2.238704e+03
  1.150836e+01    2.247135e+03
  1.156148e+01    2.243408e+03
  1.161459e+01    2.250802e+03
  1.166771e+01    2.240436e+03
  1.172083e+01    2.246252e+03
  1.177395e+01    2.225349e+03
  1.182707e+01    2.212255e+03
  1.188018e+01    2.213294e+03
  1.193330e+01    2.199311e+03
  1.198642e+01    2.181930e+03
  1.203954e+01    2.160647e+03
  1.209266e+01    2.151899e+03
  1.214578e+01    2.143595e+03
  1.219889e+01    2.148687e+03
  1.225201e+01    2.147939e+03
  1.230513e+01    2.141680e+03
  1.235825e+01    2.143977e+03
  1.241137e+01    2.129153e+03
  1.246448e+01    2.125043e+03
  1.251760e+01    2.121002e+03
  1.257072e+01    2.115703e+03
  1.262384e+01    2.120358e+03
  1.267696e+01    2.109438e+03
  1.273008e+01    2.093814e+03
  1.278319e+01    2.085308e+03
  1.283631e+01    2.074359e+03
  1.288943e+01    2.068262e+03
  1.294255e+01    2.057002e+03
  1.299567e+01    2.052241e+03
  1.304878e+01    2.047140e+03
  1.310190e+01    2.044778e+03
  1.315502e+01    2.041318e+03
  1.320814e+01    2.017927e+03
  1.326126e+01    1.993524e+03
  1.331437e+01    1.985514e+03
  1.336749e+01    1.976292e+03
  1.342061e+01    1.967952e+03
  1.347373e+01    1.992475e+03
  1.352685e+01    1.992458e+03
  1.357997e+01    1.980894e+03
  1.363308e+01    1.967628e+03
  1.368620e+01    1.959944e+03
  1.373932e+01    1.949809e+03
  1.379244e+01    1.945275e+03
  1.384556e+01    1.937649e+03
  1.389867e+01    1.931449e+03
  1.395179e+01    1.922423e+03
  1.400491e+01    1.918252e+03
  1.405803e+01    1.916375e+03
  1.411115e+01    1.908530e+03
  1.416427e+01    1.898851e+03
  1.421738e+01    1.896100e+03
  1.427050e+01    1.885797e+03
  1.432362e+01    1.887106e+03
  1.437674e+01    1.883665e+03
  1.442986e+01    1.873097e+03
  1.448297e+01    1.866221e+03
  1.453609e+01    1.858914e+03
  1.458921e+01    1.849791e+03
  1.464233e+01    1.844809e+03
  1.469545e+01    1.838174e+03
  1.474857e+01    1.817713e+03
  1.480168e+01    1.829363e+03
  1.485480e+01    1.827031e+03
  1.490792e+01    1.821726e+03
  1.496104e+01    1.815020e+03
  1.501416e+01    1.812064e+03
  1.506727e+01    1.808302e+03
  1.512039e+01    1.805353e+03
  1.517351e+01    1.817233e+03
  1.522663e+01    1.831248e+03
  1.527975e+01    1.827511e+03
  1.533286e+01    1.812250e+03
  1.538598e+01    1.802045e+03
  1.543910e+01    1.795669e+03
  1.549222e+01    1.792638e+03
  1.554534e+01    1.790303e+03
  1.559846e+01    1.788553e+03
  1.565157e+01    1.780848e+03
  1.570469e+01    1.776984e+03
  1.575781e+01    1.772669e+03
  1.581093e+01    1.769474e+03
  1.586405e+01    1.766894e+03
  1.591716e+01    1.761709e+03
  1.597028e+01    1.756362e+03
  1.602340e+01    1.740401e+03
  1.607652e+01    1.731296e+03
  1.612964e+01    1.706954e+03
  1.618276e+01    1.692962e+03
  1.623587e+01    1.694930e+03
  1.628899e+01    1.711819e+03
  1.634211e+01    1.710208e+03
  1.639523e+01    1.704490e+03
  1.644835e+01    1.705764e+03
  1.650146e+01    1.699205e+03
  1.655458e+01    1.698385e+03
  1.660770e+01    1.695246e+03
  1.666082e+01    1.689836e+03
  1.671394e+01    1.689192e+03
  1.676706e+01    1.684680e+03
  1.682017e+01    1.696817e+03
  1.687329e+01    1.686699e+03
  1.692641e+01    1.680374e+03
  1.697953e+01    1.675918e+03
  1.703265e+01    1.672469e+03
  1.708576e+01    1.670548e+03
  1.713888e+01    1.663948e+03
  1.719200e+01    1.662736e+03
  1.724512e+01    1.654995e+03
  1.729824e+01    1.655201e+03
  1.735136e+01    1.648367e+03
  1.740447e+01    1.625205e+03
  1.745759e+01    1.632767e+03
  1.751071e+01    1.634524e+03
  1.756383e+01    1.645810e+03
  1.761695e+01    1.629740e+03
  1.767006e+01    1.627842e+03
  1.772318e+01    1.617583e+03
  1.777630e+01    1.617628e+03
  1.782942e+01    1.609308e+03
  1.788254e+01    1.605131e+03
  1.793565e+01    1.602960e+03
  1.798877e+01    1.600065e+03
  1.804189e+01    1.592756e+03
  1.809501e+01    1.588087e+03
  1.814813e+01    1.585925e+03
  1.820125e+01    1.580836e+03
  1.825436e+01    1.585828e+03
  1.830748e+01    1.578505e+03
  1.836060e+01    1.575364e+03
  1.841372e+01    1.571755e+03
  1.846684e+01    1.566790e+03
  1.851995e+01    1.545995e+03
  1.857307e+01    1.533217e+03
  1.862619e+01    1.523341e+03
  1.867931e+01    1.520519e+03
  1.873243e+01    1.538265e+03
  1.878555e+01    1.540578e+03
  1.883866e+01    1.539670e+03
  1.889178e+01    1.539034e+03
  1.894490e+01    1.549803e+03
  1.899802e+01    1.540514e+03
  1.905114e+01    1.536666e+03
  1.910425e+01    1.530810e+03
  1.915737e+01    1.526488e+03
  1.921049e+01    1.524016e+03
  1.926361e+01    1.519144e+03
  1.931673e+01    1.516645e+03
  1.936985e+01    1.514044e+03
  1.942296e+01    1.511112e+03
  1.947608e+01    1.510512e+03
  1.952920e+01    1.507626e+03
  1.958232e+01    1.508690e+03
  1.963544e+01    1.512804e+03
  1.968855e+01    1.498692e+03
  1.974167e+01    1.487234e+03
  1.979479e+01    1.491955e+03
  1.984791e+01    1.490757e+03
  1.990103e+01    1.488074e+03
  1.995414e+01    1.486727e+03
  2.000726e+01    1.483319e+03
  2.006038e+01    1.479523e+03
  2.011350e+01    1.475988e+03
  2.016662e+01    1.469717e+03
  2.021974e+01    1.474311e+03
  2.027285e+01    1.477699e+03
  2.032597e+01    1.464175e+03
  2.037909e+01    1.458978e+03
  2.043221e+01    1.454892e+03
  2.048533e+01    1.452912e+03
  2.053844e+01    1.452331e+03
  2.059156e+01    1.446504e+03
  2.064468e+01    1.442890e+03
  2.069780e+01    1.425216e+03
  2.075092e+01    1.399842e+03
  2.080404e+01    1.386744e+03
  2.085715e+01    1.405590e+03
  2.091027e+01    1.432270e+03
  2.096339e+01    1.439757e+03
  2.101651e+01    1.442302e+03
  2.106963e+01    1.446840e+03
  2.112274e+01    1.450674e+03
  2.117586e+01    1.452721e+03
  2.122898e+01    1.454726e+03
  2.128210e+01    1.451667e+03
  2.133522e+01    1.452792e+03
  2.138834e+01    1.450361e+03
  2.144145e+01    1.449805e+03
  2.149457e+01    1.449468e+03
  2.154769e+01    1.449754e+03
  2.160081e+01    1.449265e+03
  2.165393e+01    1.449888e+03
  2.170704e+01    1.449620e+03
  2.176016e+01    1.439513e+03
  2.181328e+01    1.447579e+03
  2.186640e+01    1.449306e+03
  2.191952e+01    1.448472e+03
  2.197263e+01    1.445520e+03
  2.202575e+01    1.442209e+03
  2.207887e+01    1.443334e+03
  2.213199e+01    1.441939e+03
  2.218511e+01    1.440817e+03
  2.223823e+01    1.439824e+03
  2.229134e+01    1.438557e+03
  2.234446e+01    1.437436e+03
  2.239758e+01    1.436128e+03
  2.245070e+01    1.434845e+03
  2.250382e+01    1.434905e+03
  2.255693e+01    1.431334e+03
  2.261005e+01    1.414335e+03
  2.266317e+01    1.401147e+03
  2.271629e+01    1.393380e+03
  2.276941e+01    1.384303e+03
  2.282253e+01    1.377537e+03
  2.287564e+01    1.372668e+03
  2.292876e+01    1.368595e+03
  2.298188e+01    1.365825e+03
  2.303500e+01    1.362180e+03
  2.308812e+01    1.360715e+03
  2.314123e+01    1.358398e+03
  2.319435e+01    1.352849e+03
  2.324747e+01    1.346536e+03
  2.330059e+01    1.342832e+03
  2.335371e+01    1.341481e+03
  2.340683e+01    1.336181e+03
  2.345994e+01    1.332976e+03
  2.351306e+01    1.328904e+03
  2.356618e+01    1.326635e+03
  2.361930e+01    1.321723e+03
  2.367242e+01    1.315073e+03
  2.372553e+01    1.309323e+03
  2.377865e+01    1.304949e+03
  2.383177e+01    1.297274e+03
  2.388489e+01    1.294856e+03
  2.393801e+01    1.289733e+03
  2.399113e+01    1.288406e+03
  2.404424e+01    1.288363e+03
  2.409736e+01    1.286597e+03
  2.415048e+01    1.282346e+03
  2.420360e+01    1.279253e+03
  2.425672e+01    1.277283e+03
  2.430983e+01    1.273266e+03
  2.436295e+01    1.273605e+03
  2.441607e+01    1.270923e+03
  2.446919e+01    1.268969e+03
  2.452231e+01    1.267818e+03
  2.457542e+01    1.264774e+03
  2.462854e+01    1.262366e+03
  2.468166e+01    1.262360e+03
  2.473478e+01    1.253514e+03
  2.478790e+01    1.250353e+03
  2.484102e+01    1.247047e+03
  2.489413e+01    1.241592e+03
  2.494725e+01    1.237315e+03
  2.500037e+01    1.232946e+03
  2.505349e+01    1.229634e+03
  2.510661e+01    1.222849e+03
  2.515972e+01    1.221737e+03
  2.521284e+01    1.219790e+03
  2.526596e+01    1.217534e+03
  2.531908e+01    1.214068e+03
  2.537220e+01    1.214580e+03
  2.542532e+01    1.210760e+03
  2.547843e+01    1.204820e+03
  2.553155e+01    1.199960e+03
  2.558467e+01    1.198829e+03
  2.563779e+01    1.187146e+03
  2.569091e+01    1.183540e+03
  2.574402e+01    1.175700e+03
  2.579714e+01    1.168493e+03
  2.585026e+01    1.162377e+03
  2.590338e+01    1.156226e+03
  2.595650e+01    1.151960e+03
  2.600962e+01    1.148709e+03
  2.606273e+01    1.152173e+03
  2.611585e+01    1.148761e+03
  2.616897e+01    1.150587e+03
  2.622209e+01    1.144688e+03
  2.627521e+01    1.141524e+03
  2.632832e+01    1.130002e+03
  2.638144e+01    1.132911e+03
  2.643456e+01    1.128969e+03
  2.648768e+01    1.113808e+03
  2.654080e+01    1.108340e+03
