# == pyFAI calibration ==
# Distance Sample to Detector: 0.2946421923531691 m
# PONI: 2.875e-01, 2.439e-01 m
# Rotations: -0.010990 -0.009181 0.000003 rad
# 
# == Fit2d calibration ==
# Distance Sample-beamCenter: 294.672 mm
# Center: x=1436.809, y=1655.851 pix
# Tilt: 0.820 deg  TiltPlanRot: -39.874 deg
# 
# Detector Pilatus 2M	 PixelSize= 1.720e-04, 1.720e-04 m
#    Detector has a mask: True 
#    Detector has a dark current: False 
#    detector has a flat field: False 
# 
# Wavelength: 2.0732883349524408e-11 m
# Mask applied: from detector
# Dark current applied: False
# Flat field applied: False
# Polarization factor: None
# Normalization factor: 1.0
# --> /gpfs/current/raw/FMue_3/FMue_3_20231024_175355_00192.dat
#        q_A^-1             I 
  3.483473e-02             nan
  8.795289e-02             nan
  1.410711e-01             nan
  1.941892e-01             nan
  2.473074e-01             nan
  3.004255e-01             nan
  3.535437e-01             nan
  4.066619e-01    1.130264e+04
  4.597800e-01    1.035794e+04
  5.128982e-01    8.857677e+03
  5.660163e-01    8.080633e+03
  6.191345e-01    7.796124e+03
  6.722527e-01    7.706896e+03
  7.253708e-01    7.775830e+03
  7.784890e-01    7.825153e+03
  8.316071e-01    7.981505e+03
  8.847253e-01    8.113544e+03
  9.378435e-01    8.292315e+03
  9.909616e-01    8.506510e+03
  1.044080e+00    8.834128e+03
  1.097198e+00    9.254399e+03
  1.150316e+00    9.865949e+03
  1.203434e+00    1.056375e+04
  1.256552e+00    1.144661e+04
  1.309671e+00    1.261791e+04
  1.362789e+00    1.370577e+04
  1.415907e+00    1.413956e+04
  1.469025e+00    1.425164e+04
  1.522143e+00    1.412468e+04
  1.575261e+00    1.354351e+04
  1.628380e+00    1.281435e+04
  1.681498e+00    1.189145e+04
  1.734616e+00    1.093877e+04
  1.787734e+00    1.010614e+04
  1.840852e+00    9.411134e+03
  1.893970e+00    8.824473e+03
  1.947089e+00    8.414131e+03
  2.000207e+00    8.105735e+03
  2.053325e+00    8.000729e+03
  2.106443e+00    8.472701e+03
  2.159561e+00    9.571299e+03
  2.212679e+00    9.844996e+03
  2.265797e+00    9.279037e+03
  2.318916e+00    8.506514e+03
  2.372034e+00    7.795939e+03
  2.425152e+00    8.030419e+03
  2.478270e+00    9.483698e+03
  2.531388e+00    1.296382e+04
  2.584506e+00    1.400674e+04
  2.637625e+00    1.062311e+04
  2.690743e+00    8.423344e+03
  2.743861e+00    7.603876e+03
  2.796979e+00    6.355340e+03
  2.850097e+00    5.475745e+03
  2.903215e+00    5.172886e+03
  2.956334e+00    5.107832e+03
  3.009452e+00    5.450306e+03
  3.062570e+00    6.960805e+03
  3.115688e+00    9.231185e+03
  3.168806e+00    8.942949e+03
  3.221924e+00    7.213818e+03
  3.275043e+00    5.686832e+03
  3.328161e+00    4.850369e+03
  3.381279e+00    4.625998e+03
  3.434397e+00    4.632276e+03
  3.487515e+00    4.719527e+03
  3.540633e+00    4.641677e+03
  3.593751e+00    4.562720e+03
  3.646870e+00    4.618404e+03
  3.699988e+00    4.791631e+03
  3.753106e+00    5.115949e+03
  3.806224e+00    5.351656e+03
  3.859342e+00    5.356973e+03
  3.912460e+00    5.593868e+03
  3.965579e+00    6.458226e+03
  4.018697e+00    7.451225e+03
  4.071815e+00    7.412506e+03
  4.124933e+00    6.751398e+03
  4.178051e+00    6.315686e+03
  4.231169e+00    6.163675e+03
  4.284288e+00    6.545714e+03
  4.337406e+00    8.236089e+03
  4.390524e+00    1.045993e+04
  4.443642e+00    1.194382e+04
  4.496760e+00    1.209335e+04
  4.549878e+00    8.444833e+03
  4.602997e+00    5.859533e+03
  4.656115e+00    5.237755e+03
  4.709233e+00    5.037931e+03
  4.762351e+00    4.990412e+03
  4.815469e+00    5.045481e+03
  4.868587e+00    5.178403e+03
  4.921705e+00    5.250026e+03
  4.974824e+00    5.327514e+03
  5.027942e+00    5.486854e+03
  5.081060e+00    5.685252e+03
  5.134178e+00    5.477496e+03
  5.187296e+00    5.024018e+03
  5.240414e+00    4.639675e+03
  5.293533e+00    4.443530e+03
  5.346651e+00    4.356305e+03
  5.399769e+00    4.274171e+03
  5.452887e+00    4.237428e+03
  5.506005e+00    4.116817e+03
  5.559123e+00    3.763627e+03
  5.612242e+00    3.589768e+03
  5.665360e+00    3.552834e+03
  5.718478e+00    3.545279e+03
  5.771596e+00    3.606522e+03
  5.824714e+00    3.690654e+03
  5.877832e+00    3.867348e+03
  5.930951e+00    4.142482e+03
  5.984069e+00    4.160990e+03
  6.037187e+00    3.936055e+03
  6.090305e+00    3.757469e+03
  6.143423e+00    3.733048e+03
  6.196541e+00    3.884240e+03
  6.249660e+00    3.998377e+03
  6.302778e+00    3.862583e+03
  6.355896e+00    3.603631e+03
  6.409014e+00    3.506217e+03
  6.462132e+00    3.446065e+03
  6.515250e+00    3.405743e+03
  6.568368e+00    3.432152e+03
  6.621487e+00    3.501543e+03
  6.674605e+00    3.627681e+03
  6.727723e+00    3.677860e+03
  6.780841e+00    3.505657e+03
  6.833959e+00    3.313752e+03
  6.887077e+00    3.229398e+03
  6.940196e+00    3.201086e+03
  6.993314e+00    3.226269e+03
  7.046432e+00    3.226778e+03
  7.099550e+00    3.154741e+03
  7.152668e+00    3.096398e+03
  7.205786e+00    3.051736e+03
  7.258905e+00    3.043725e+03
  7.312023e+00    3.109781e+03
  7.365141e+00    3.212628e+03
  7.418259e+00    3.255429e+03
  7.471377e+00    3.246766e+03
  7.524495e+00    3.319576e+03
  7.577614e+00    3.471336e+03
  7.630732e+00    3.491243e+03
  7.683850e+00    3.510178e+03
  7.736968e+00    3.579845e+03
  7.790086e+00    3.484152e+03
  7.843204e+00    3.313814e+03
  7.896322e+00    3.195357e+03
  7.949441e+00    3.164835e+03
  8.002559e+00    3.177336e+03
  8.055677e+00    3.135208e+03
  8.108795e+00    3.053294e+03
  8.161913e+00    3.005724e+03
  8.215031e+00    2.960230e+03
  8.268150e+00    2.917073e+03
  8.321268e+00    2.882762e+03
  8.374386e+00    2.857657e+03
  8.427504e+00    2.843348e+03
  8.480622e+00    2.833096e+03
  8.533740e+00    2.792055e+03
  8.586859e+00    2.825635e+03
  8.639977e+00    2.813844e+03
  8.693095e+00    2.801295e+03
  8.746213e+00    2.810301e+03
  8.799331e+00    2.796725e+03
  8.852449e+00    2.771591e+03
  8.905568e+00    2.772584e+03
  8.958686e+00    2.775500e+03
  9.011804e+00    2.772300e+03
  9.064922e+00    2.728785e+03
  9.118040e+00    2.701284e+03
  9.171158e+00    2.679458e+03
  9.224276e+00    2.636678e+03
  9.277395e+00    2.586097e+03
  9.330513e+00    2.556238e+03
  9.383631e+00    2.531303e+03
  9.436749e+00    2.519523e+03
  9.489867e+00    2.534101e+03
  9.542985e+00    2.547153e+03
  9.596104e+00    2.547462e+03
  9.649222e+00    2.554494e+03
  9.702340e+00    2.543833e+03
  9.755458e+00    2.531773e+03
  9.808576e+00    2.524575e+03
  9.861694e+00    2.519712e+03
  9.914813e+00    2.505875e+03
  9.967931e+00    2.483178e+03
  1.002105e+01    2.459322e+03
  1.007417e+01    2.440334e+03
  1.012729e+01    2.422038e+03
  1.018040e+01    2.400548e+03
  1.023352e+01    2.362826e+03
  1.028664e+01    2.327166e+03
  1.033976e+01    2.311749e+03
  1.039288e+01    2.333660e+03
  1.044599e+01    2.322446e+03
  1.049911e+01    2.328231e+03
  1.055223e+01    2.317294e+03
  1.060535e+01    2.318958e+03
  1.065847e+01    2.307027e+03
  1.071158e+01    2.296924e+03
  1.076470e+01    2.287615e+03
  1.081782e+01    2.287052e+03
  1.087094e+01    2.276003e+03
  1.092406e+01    2.288432e+03
  1.097718e+01    2.296678e+03
  1.103029e+01    2.297419e+03
  1.108341e+01    2.283612e+03
  1.113653e+01    2.262766e+03
  1.118965e+01    2.242459e+03
  1.124277e+01    2.227557e+03
  1.129588e+01    2.224699e+03
  1.134900e+01    2.219183e+03
  1.140212e+01    2.226413e+03
  1.145524e+01    2.228968e+03
  1.150836e+01    2.238073e+03
  1.156148e+01    2.237271e+03
  1.161459e+01    2.237892e+03
  1.166771e+01    2.217021e+03
  1.172083e+01    2.219521e+03
  1.177395e+01    2.199651e+03
  1.182707e+01    2.192674e+03
  1.188018e+01    2.194915e+03
  1.193330e+01    2.178425e+03
  1.198642e+01    2.158234e+03
  1.203954e+01    2.138663e+03
  1.209266e+01    2.136472e+03
  1.214578e+01    2.129032e+03
  1.219889e+01    2.137383e+03
  1.225201e+01    2.140198e+03
  1.230513e+01    2.131424e+03
  1.235825e+01    2.128726e+03
  1.241137e+01    2.109883e+03
  1.246448e+01    2.108757e+03
  1.251760e+01    2.103594e+03
  1.257072e+01    2.100884e+03
  1.262384e+01    2.107084e+03
  1.267696e+01    2.091322e+03
  1.273008e+01    2.077295e+03
  1.278319e+01    2.067929e+03
  1.283631e+01    2.055598e+03
  1.288943e+01    2.049161e+03
  1.294255e+01    2.038896e+03
  1.299567e+01    2.037004e+03
  1.304878e+01    2.033041e+03
  1.310190e+01    2.028655e+03
  1.315502e+01    2.025164e+03
  1.320814e+01    2.002202e+03
  1.326126e+01    1.978333e+03
  1.331437e+01    1.970457e+03
  1.336749e+01    1.963997e+03
  1.342061e+01    1.952698e+03
  1.347373e+01    1.972646e+03
  1.352685e+01    1.970029e+03
  1.357997e+01    1.957061e+03
  1.363308e+01    1.948478e+03
  1.368620e+01    1.941909e+03
  1.373932e+01    1.934625e+03
  1.379244e+01    1.928559e+03
  1.384556e+01    1.920324e+03
  1.389867e+01    1.913463e+03
  1.395179e+01    1.905183e+03
  1.400491e+01    1.901495e+03
  1.405803e+01    1.899971e+03
  1.411115e+01    1.891156e+03
  1.416427e+01    1.881091e+03
  1.421738e+01    1.877782e+03
  1.427050e+01    1.867966e+03
  1.432362e+01    1.869350e+03
  1.437674e+01    1.866899e+03
  1.442986e+01    1.856765e+03
  1.448297e+01    1.850614e+03
  1.453609e+01    1.843541e+03
  1.458921e+01    1.831934e+03
  1.464233e+01    1.829503e+03
  1.469545e+01    1.822533e+03
  1.474857e+01    1.804094e+03
  1.480168e+01    1.814301e+03
  1.485480e+01    1.809665e+03
  1.490792e+01    1.805112e+03
  1.496104e+01    1.797531e+03
  1.501416e+01    1.796044e+03
  1.506727e+01    1.792215e+03
  1.512039e+01    1.789591e+03
  1.517351e+01    1.802109e+03
  1.522663e+01    1.815137e+03
  1.527975e+01    1.812097e+03
  1.533286e+01    1.797425e+03
  1.538598e+01    1.788058e+03
  1.543910e+01    1.779175e+03
  1.549222e+01    1.773875e+03
  1.554534e+01    1.774017e+03
  1.559846e+01    1.772077e+03
  1.565157e+01    1.765653e+03
  1.570469e+01    1.761218e+03
  1.575781e+01    1.757622e+03
  1.581093e+01    1.753874e+03
  1.586405e+01    1.750992e+03
  1.591716e+01    1.746064e+03
  1.597028e+01    1.739043e+03
  1.602340e+01    1.723969e+03
  1.607652e+01    1.712825e+03
  1.612964e+01    1.690269e+03
  1.618276e+01    1.678011e+03
  1.623587e+01    1.680206e+03
  1.628899e+01    1.695693e+03
  1.634211e+01    1.692532e+03
  1.639523e+01    1.688346e+03
  1.644835e+01    1.690973e+03
  1.650146e+01    1.684320e+03
  1.655458e+01    1.683653e+03
  1.660770e+01    1.677726e+03
  1.666082e+01    1.673719e+03
  1.671394e+01    1.673196e+03
  1.676706e+01    1.667275e+03
  1.682017e+01    1.680584e+03
  1.687329e+01    1.669311e+03
  1.692641e+01    1.663449e+03
  1.697953e+01    1.658579e+03
  1.703265e+01    1.654113e+03
  1.708576e+01    1.653844e+03
  1.713888e+01    1.644396e+03
  1.719200e+01    1.644780e+03
  1.724512e+01    1.637322e+03
  1.729824e+01    1.635801e+03
  1.735136e+01    1.630880e+03
  1.740447e+01    1.608413e+03
  1.745759e+01    1.616589e+03
  1.751071e+01    1.618903e+03
  1.756383e+01    1.628505e+03
  1.761695e+01    1.612526e+03
  1.767006e+01    1.610597e+03
  1.772318e+01    1.602087e+03
  1.777630e+01    1.600607e+03
  1.782942e+01    1.593449e+03
  1.788254e+01    1.587508e+03
  1.793565e+01    1.585307e+03
  1.798877e+01    1.583747e+03
  1.804189e+01    1.577468e+03
  1.809501e+01    1.572117e+03
  1.814813e+01    1.569609e+03
  1.820125e+01    1.564593e+03
  1.825436e+01    1.569777e+03
  1.830748e+01    1.563404e+03
  1.836060e+01    1.557614e+03
  1.841372e+01    1.555399e+03
  1.846684e+01    1.550412e+03
  1.851995e+01    1.531455e+03
  1.857307e+01    1.518285e+03
  1.862619e+01    1.510300e+03
  1.867931e+01    1.505220e+03
  1.873243e+01    1.523777e+03
  1.878555e+01    1.526904e+03
  1.883866e+01    1.524564e+03
  1.889178e+01    1.525012e+03
  1.894490e+01    1.535524e+03
  1.899802e+01    1.526310e+03
  1.905114e+01    1.522477e+03
  1.910425e+01    1.516854e+03
  1.915737e+01    1.513519e+03
  1.921049e+01    1.507963e+03
  1.926361e+01    1.504938e+03
  1.931673e+01    1.500657e+03
  1.936985e+01    1.499353e+03
  1.942296e+01    1.497536e+03
  1.947608e+01    1.496610e+03
  1.952920e+01    1.491781e+03
  1.958232e+01    1.493061e+03
  1.963544e+01    1.499197e+03
  1.968855e+01    1.484625e+03
  1.974167e+01    1.472293e+03
  1.979479e+01    1.477275e+03
  1.984791e+01    1.474597e+03
  1.990103e+01    1.473817e+03
  1.995414e+01    1.471619e+03
  2.000726e+01    1.468738e+03
  2.006038e+01    1.464752e+03
  2.011350e+01    1.461664e+03
  2.016662e+01    1.455953e+03
  2.021974e+01    1.458621e+03
  2.027285e+01    1.464320e+03
  2.032597e+01    1.448684e+03
  2.037909e+01    1.443286e+03
  2.043221e+01    1.438929e+03
  2.048533e+01    1.438651e+03
  2.053844e+01    1.437487e+03
  2.059156e+01    1.431561e+03
  2.064468e+01    1.428275e+03
  2.069780e+01    1.410111e+03
  2.075092e+01    1.386292e+03
  2.080404e+01    1.372208e+03
  2.085715e+01    1.390292e+03
  2.091027e+01    1.416535e+03
  2.096339e+01    1.424211e+03
  2.101651e+01    1.428979e+03
  2.106963e+01    1.431703e+03
  2.112274e+01    1.435956e+03
  2.117586e+01    1.437607e+03
  2.122898e+01    1.439377e+03
  2.128210e+01    1.437843e+03
  2.133522e+01    1.438282e+03
  2.138834e+01    1.435689e+03
  2.144145e+01    1.436514e+03
  2.149457e+01    1.436125e+03
  2.154769e+01    1.435323e+03
  2.160081e+01    1.433995e+03
  2.165393e+01    1.435272e+03
  2.170704e+01    1.435120e+03
  2.176016e+01    1.424906e+03
  2.181328e+01    1.433923e+03
  2.186640e+01    1.434314e+03
  2.191952e+01    1.433478e+03
  2.197263e+01    1.431675e+03
  2.202575e+01    1.429911e+03
  2.207887e+01    1.427957e+03
  2.213199e+01    1.426526e+03
  2.218511e+01    1.426137e+03
  2.223823e+01    1.426095e+03
  2.229134e+01    1.424762e+03
  2.234446e+01    1.422510e+03
  2.239758e+01    1.422087e+03
  2.245070e+01    1.421098e+03
  2.250382e+01    1.421657e+03
  2.255693e+01    1.418204e+03
  2.261005e+01    1.400511e+03
  2.266317e+01    1.388310e+03
  2.271629e+01    1.379680e+03
  2.276941e+01    1.370934e+03
  2.282253e+01    1.362592e+03
  2.287564e+01    1.360121e+03
  2.292876e+01    1.355099e+03
  2.298188e+01    1.351049e+03
  2.303500e+01    1.349342e+03
  2.308812e+01    1.347113e+03
  2.314123e+01    1.344141e+03
  2.319435e+01    1.339811e+03
  2.324747e+01    1.332742e+03
  2.330059e+01    1.328749e+03
  2.335371e+01    1.326364e+03
  2.340683e+01    1.323329e+03
  2.345994e+01    1.318505e+03
  2.351306e+01    1.316133e+03
  2.356618e+01    1.312431e+03
  2.361930e+01    1.306639e+03
  2.367242e+01    1.301122e+03
  2.372553e+01    1.295234e+03
  2.377865e+01    1.290447e+03
  2.383177e+01    1.286350e+03
  2.388489e+01    1.281229e+03
  2.393801e+01    1.279774e+03
  2.399113e+01    1.276253e+03
  2.404424e+01    1.276936e+03
  2.409736e+01    1.275438e+03
  2.415048e+01    1.270188e+03
  2.420360e+01    1.267813e+03
  2.425672e+01    1.264703e+03
  2.430983e+01    1.261952e+03
  2.436295e+01    1.259633e+03
  2.441607e+01    1.257075e+03
  2.446919e+01    1.256582e+03
  2.452231e+01    1.255019e+03
  2.457542e+01    1.251893e+03
  2.462854e+01    1.250134e+03
  2.468166e+01    1.248911e+03
  2.473478e+01    1.242961e+03
  2.478790e+01    1.236370e+03
  2.484102e+01    1.233098e+03
  2.489413e+01    1.229218e+03
  2.494725e+01    1.223156e+03
  2.500037e+01    1.220353e+03
  2.505349e+01    1.214686e+03
  2.510661e+01    1.209045e+03
  2.515972e+01    1.206358e+03
  2.521284e+01    1.205667e+03
  2.526596e+01    1.203339e+03
  2.531908e+01    1.199943e+03
  2.537220e+01    1.201263e+03
  2.542532e+01    1.198693e+03
  2.547843e+01    1.196205e+03
  2.553155e+01    1.192453e+03
  2.558467e+01    1.187417e+03
  2.563779e+01    1.177749e+03
  2.569091e+01    1.173462e+03
  2.574402e+01    1.161316e+03
  2.579714e+01    1.156096e+03
  2.585026e+01    1.148794e+03
  2.590338e+01    1.143251e+03
  2.595650e+01    1.139180e+03
  2.600962e+01    1.139406e+03
  2.606273e+01    1.140567e+03
  2.611585e+01    1.139680e+03
  2.616897e+01    1.139338e+03
  2.622209e+01    1.137067e+03
  2.627521e+01    1.132069e+03
  2.632832e+01    1.120870e+03
  2.638144e+01    1.121160e+03
  2.643456e+01    1.107549e+03
  2.648768e+01    1.094291e+03
  2.654080e+01    1.089828e+03
