# == pyFAI calibration ==
# Distance Sample to Detector: 0.2946421923531691 m
# PONI: 2.875e-01, 2.439e-01 m
# Rotations: -0.010990 -0.009181 0.000003 rad
# 
# == Fit2d calibration ==
# Distance Sample-beamCenter: 294.672 mm
# Center: x=1436.809, y=1655.851 pix
# Tilt: 0.820 deg  TiltPlanRot: -39.874 deg
# 
# Detector Pilatus 2M	 PixelSize= 1.720e-04, 1.720e-04 m
#    Detector has a mask: True 
#    Detector has a dark current: False 
#    detector has a flat field: False 
# 
# Wavelength: 2.0732883349524408e-11 m
# Mask applied: from detector
# Dark current applied: False
# Flat field applied: False
# Polarization factor: None
# Normalization factor: 1.0
# --> /gpfs/current/raw/FMue_3/FMue_3_20231024_175355_00004.dat
#        q_A^-1             I 
  3.483473e-02             nan
  8.795289e-02             nan
  1.410711e-01             nan
  1.941892e-01             nan
  2.473074e-01             nan
  3.004255e-01             nan
  3.535437e-01             nan
  4.066619e-01    9.469181e+03
  4.597800e-01    9.055859e+03
  5.128982e-01    8.159104e+03
  5.660163e-01    7.823167e+03
  6.191345e-01    7.854833e+03
  6.722527e-01    7.995065e+03
  7.253708e-01    8.372982e+03
  7.784890e-01    1.353086e+04
  8.316071e-01    2.715545e+04
  8.847253e-01    1.659625e+04
  9.378435e-01    9.343123e+03
  9.909616e-01    9.910095e+03
  1.044080e+00    1.012615e+04
  1.097198e+00    9.921003e+03
  1.150316e+00    1.030466e+04
  1.203434e+00    1.099034e+04
  1.256552e+00    1.200806e+04
  1.309671e+00    1.298843e+04
  1.362789e+00    1.383761e+04
  1.415907e+00    1.452897e+04
  1.469025e+00    1.477730e+04
  1.522143e+00    1.469391e+04
  1.575261e+00    1.423082e+04
  1.628380e+00    1.623370e+04
  1.681498e+00    1.804813e+04
  1.734616e+00    1.266970e+04
  1.787734e+00    1.059063e+04
  1.840852e+00    9.831990e+03
  1.893970e+00    9.302108e+03
  1.947089e+00    9.205324e+03
  2.000207e+00    8.850587e+03
  2.053325e+00    8.132555e+03
  2.106443e+00    7.885557e+03
  2.159561e+00    7.996042e+03
  2.212679e+00    8.178232e+03
  2.265797e+00    8.399687e+03
  2.318916e+00    8.270293e+03
  2.372034e+00    8.781266e+03
  2.425152e+00    1.352727e+04
  2.478270e+00    9.595026e+03
  2.531388e+00    8.121545e+03
  2.584506e+00    8.913141e+03
  2.637625e+00    8.808092e+03
  2.690743e+00    9.133852e+03
  2.743861e+00    1.263313e+04
  2.796979e+00    8.365676e+03
  2.850097e+00    5.876890e+03
  2.903215e+00    5.439027e+03
  2.956334e+00    5.260104e+03
  3.009452e+00    5.359498e+03
  3.062570e+00    6.196864e+03
  3.115688e+00    7.851400e+03
  3.168806e+00    8.863215e+03
  3.221924e+00    1.064324e+04
  3.275043e+00    1.011397e+04
  3.328161e+00    6.293847e+03
  3.381279e+00    6.011665e+03
  3.434397e+00    5.373597e+03
  3.487515e+00    5.064299e+03
  3.540633e+00    4.993599e+03
  3.593751e+00    5.093055e+03
  3.646870e+00    6.286840e+03
  3.699988e+00    5.626996e+03
  3.753106e+00    4.953913e+03
  3.806224e+00    5.117975e+03
  3.859342e+00    5.897051e+03
  3.912460e+00    5.645102e+03
  3.965579e+00    5.154004e+03
  4.018697e+00    5.455015e+03
  4.071815e+00    7.359231e+03
  4.124933e+00    8.142953e+03
  4.178051e+00    8.759084e+03
  4.231169e+00    6.963380e+03
  4.284288e+00    6.421977e+03
  4.337406e+00    7.304620e+03
  4.390524e+00    7.850189e+03
  4.443642e+00    1.027525e+04
  4.496760e+00    1.202874e+04
  4.549878e+00    9.729540e+03
  4.602997e+00    6.303385e+03
  4.656115e+00    5.224415e+03
  4.709233e+00    5.322713e+03
  4.762351e+00    6.044194e+03
  4.815469e+00    5.765293e+03
  4.868587e+00    5.351449e+03
  4.921705e+00    5.786740e+03
  4.974824e+00    5.703565e+03
  5.027942e+00    5.886714e+03
  5.081060e+00    5.780819e+03
  5.134178e+00    5.262598e+03
  5.187296e+00    5.128866e+03
  5.240414e+00    5.348854e+03
  5.293533e+00    4.982446e+03
  5.346651e+00    4.541081e+03
  5.399769e+00    4.323338e+03
  5.452887e+00    4.435708e+03
  5.506005e+00    4.639139e+03
  5.559123e+00    4.127205e+03
  5.612242e+00    3.943124e+03
  5.665360e+00    3.884321e+03
  5.718478e+00    3.567615e+03
  5.771596e+00    3.573957e+03
  5.824714e+00    3.716373e+03
  5.877832e+00    3.687003e+03
  5.930951e+00    3.736521e+03
  5.984069e+00    3.890384e+03
  6.037187e+00    3.798128e+03
  6.090305e+00    3.792489e+03
  6.143423e+00    3.746028e+03
  6.196541e+00    3.721573e+03
  6.249660e+00    4.212854e+03
  6.302778e+00    4.390080e+03
  6.355896e+00    3.998202e+03
  6.409014e+00    4.175542e+03
  6.462132e+00    4.067509e+03
  6.515250e+00    3.915423e+03
  6.568368e+00    3.720148e+03
  6.621487e+00    3.717379e+03
  6.674605e+00    3.689269e+03
  6.727723e+00    3.475374e+03
  6.780841e+00    3.398295e+03
  6.833959e+00    3.471710e+03
  6.887077e+00    3.414145e+03
  6.940196e+00    3.377737e+03
  6.993314e+00    3.474025e+03
  7.046432e+00    3.443289e+03
  7.099550e+00    3.713911e+03
  7.152668e+00    3.807805e+03
  7.205786e+00    3.483181e+03
  7.258905e+00    3.384785e+03
  7.312023e+00    3.245008e+03
  7.365141e+00    3.163848e+03
  7.418259e+00    3.132881e+03
  7.471377e+00    3.135064e+03
  7.524495e+00    3.249498e+03
  7.577614e+00    3.271761e+03
  7.630732e+00    3.328424e+03
  7.683850e+00    3.534481e+03
  7.736968e+00    3.716828e+03
  7.790086e+00    3.780136e+03
  7.843204e+00    3.694402e+03
  7.896322e+00    3.336158e+03
  7.949441e+00    3.088982e+03
  8.002559e+00    3.016165e+03
  8.055677e+00    2.997569e+03
  8.108795e+00    3.022192e+03
  8.161913e+00    3.156519e+03
  8.215031e+00    3.342146e+03
  8.268150e+00    3.182437e+03
  8.321268e+00    3.026589e+03
  8.374386e+00    3.065151e+03
  8.427504e+00    3.013950e+03
  8.480622e+00    2.966986e+03
  8.533740e+00    3.017115e+03
  8.586859e+00    3.075788e+03
  8.639977e+00    3.057445e+03
  8.693095e+00    2.999656e+03
  8.746213e+00    2.962289e+03
  8.799331e+00    2.953663e+03
  8.852449e+00    2.908775e+03
  8.905568e+00    2.878208e+03
  8.958686e+00    2.944229e+03
  9.011804e+00    2.957603e+03
  9.064922e+00    2.899974e+03
  9.118040e+00    2.769992e+03
  9.171158e+00    2.755763e+03
  9.224276e+00    2.795128e+03
  9.277395e+00    2.748519e+03
  9.330513e+00    2.703503e+03
  9.383631e+00    2.704904e+03
  9.436749e+00    2.676893e+03
  9.489867e+00    2.695011e+03
  9.542985e+00    2.711705e+03
  9.596104e+00    2.722520e+03
  9.649222e+00    2.676435e+03
  9.702340e+00    2.637377e+03
  9.755458e+00    2.655199e+03
  9.808576e+00    2.614093e+03
  9.861694e+00    2.598444e+03
  9.914813e+00    2.607667e+03
  9.967931e+00    2.616378e+03
  1.002105e+01    2.602200e+03
  1.007417e+01    2.563591e+03
  1.012729e+01    2.503887e+03
  1.018040e+01    2.493032e+03
  1.023352e+01    2.493796e+03
  1.028664e+01    2.481258e+03
  1.033976e+01    2.501755e+03
  1.039288e+01    2.514238e+03
  1.044599e+01    2.484744e+03
  1.049911e+01    2.488609e+03
  1.055223e+01    2.487979e+03
  1.060535e+01    2.468111e+03
  1.065847e+01    2.447307e+03
  1.071158e+01    2.436622e+03
  1.076470e+01    2.424955e+03
  1.081782e+01    2.452907e+03
  1.087094e+01    2.480432e+03
  1.092406e+01    2.461395e+03
  1.097718e+01    2.445562e+03
  1.103029e+01    2.408895e+03
  1.108341e+01    2.385457e+03
  1.113653e+01    2.381449e+03
  1.118965e+01    2.362588e+03
  1.124277e+01    2.354889e+03
  1.129588e+01    2.349139e+03
  1.134900e+01    2.350417e+03
  1.140212e+01    2.329036e+03
  1.145524e+01    2.300177e+03
  1.150836e+01    2.302574e+03
  1.156148e+01    2.335903e+03
  1.161459e+01    2.345295e+03
  1.166771e+01    2.315242e+03
  1.172083e+01    2.321825e+03
  1.177395e+01    2.311153e+03
  1.182707e+01    2.313324e+03
  1.188018e+01    2.326971e+03
  1.193330e+01    2.323950e+03
  1.198642e+01    2.305811e+03
  1.203954e+01    2.275914e+03
  1.209266e+01    2.262860e+03
  1.214578e+01    2.255309e+03
  1.219889e+01    2.253146e+03
  1.225201e+01    2.260186e+03
  1.230513e+01    2.280781e+03
  1.235825e+01    2.286740e+03
  1.241137e+01    2.265297e+03
  1.246448e+01    2.258921e+03
  1.251760e+01    2.264495e+03
  1.257072e+01    2.264274e+03
  1.262384e+01    2.260536e+03
  1.267696e+01    2.244875e+03
  1.273008e+01    2.236400e+03
  1.278319e+01    2.216923e+03
  1.283631e+01    2.195104e+03
  1.288943e+01    2.188620e+03
  1.294255e+01    2.177139e+03
  1.299567e+01    2.170054e+03
  1.304878e+01    2.163431e+03
  1.310190e+01    2.156501e+03
  1.315502e+01    2.159588e+03
  1.320814e+01    2.139733e+03
  1.326126e+01    2.103840e+03
  1.331437e+01    2.083136e+03
  1.336749e+01    2.069573e+03
  1.342061e+01    2.053167e+03
  1.347373e+01    2.079232e+03
  1.352685e+01    2.083258e+03
  1.357997e+01    2.076619e+03
  1.363308e+01    2.069876e+03
  1.368620e+01    2.057492e+03
  1.373932e+01    2.040899e+03
  1.379244e+01    2.028541e+03
  1.384556e+01    2.022201e+03
  1.389867e+01    2.019539e+03
  1.395179e+01    2.014083e+03
  1.400491e+01    2.014878e+03
  1.405803e+01    2.008613e+03
  1.411115e+01    1.997950e+03
  1.416427e+01    1.993324e+03
  1.421738e+01    1.995051e+03
  1.427050e+01    1.987120e+03
  1.432362e+01    1.988420e+03
  1.437674e+01    1.990869e+03
  1.442986e+01    1.982643e+03
  1.448297e+01    1.971167e+03
  1.453609e+01    1.963567e+03
  1.458921e+01    1.951020e+03
  1.464233e+01    1.945839e+03
  1.469545e+01    1.941788e+03
  1.474857e+01    1.926457e+03
  1.480168e+01    1.944983e+03
  1.485480e+01    1.940748e+03
  1.490792e+01    1.933274e+03
  1.496104e+01    1.921236e+03
  1.501416e+01    1.917082e+03
  1.506727e+01    1.911710e+03
  1.512039e+01    1.907856e+03
  1.517351e+01    1.919680e+03
  1.522663e+01    1.931081e+03
  1.527975e+01    1.927923e+03
  1.533286e+01    1.914903e+03
  1.538598e+01    1.903719e+03
  1.543910e+01    1.892329e+03
  1.549222e+01    1.888507e+03
  1.554534e+01    1.891707e+03
  1.559846e+01    1.890590e+03
  1.565157e+01    1.883814e+03
  1.570469e+01    1.876151e+03
  1.575781e+01    1.871641e+03
  1.581093e+01    1.866953e+03
  1.586405e+01    1.863539e+03
  1.591716e+01    1.857269e+03
  1.597028e+01    1.849212e+03
  1.602340e+01    1.833442e+03
  1.607652e+01    1.821746e+03
  1.612964e+01    1.796045e+03
  1.618276e+01    1.786006e+03
  1.623587e+01    1.788730e+03
  1.628899e+01    1.803939e+03
  1.634211e+01    1.804947e+03
  1.639523e+01    1.801816e+03
  1.644835e+01    1.803418e+03
  1.650146e+01    1.799443e+03
  1.655458e+01    1.799146e+03
  1.660770e+01    1.794199e+03
  1.666082e+01    1.788139e+03
  1.671394e+01    1.785893e+03
  1.676706e+01    1.780448e+03
  1.682017e+01    1.792390e+03
  1.687329e+01    1.781832e+03
  1.692641e+01    1.776361e+03
  1.697953e+01    1.772458e+03
  1.703265e+01    1.768669e+03
  1.708576e+01    1.766457e+03
  1.713888e+01    1.758340e+03
  1.719200e+01    1.755465e+03
  1.724512e+01    1.747537e+03
  1.729824e+01    1.747346e+03
  1.735136e+01    1.739870e+03
  1.740447e+01    1.717453e+03
  1.745759e+01    1.725565e+03
  1.751071e+01    1.723967e+03
  1.756383e+01    1.735033e+03
  1.761695e+01    1.718335e+03
  1.767006e+01    1.714474e+03
  1.772318e+01    1.705442e+03
  1.777630e+01    1.704653e+03
  1.782942e+01    1.697823e+03
  1.788254e+01    1.694783e+03
  1.793565e+01    1.691785e+03
  1.798877e+01    1.689120e+03
  1.804189e+01    1.682393e+03
  1.809501e+01    1.676732e+03
  1.814813e+01    1.674131e+03
  1.820125e+01    1.668207e+03
  1.825436e+01    1.674516e+03
  1.830748e+01    1.668077e+03
  1.836060e+01    1.663047e+03
  1.841372e+01    1.661859e+03
  1.846684e+01    1.656649e+03
  1.851995e+01    1.637209e+03
  1.857307e+01    1.621509e+03
  1.862619e+01    1.610333e+03
  1.867931e+01    1.606628e+03
  1.873243e+01    1.628140e+03
  1.878555e+01    1.631701e+03
  1.883866e+01    1.630274e+03
  1.889178e+01    1.630254e+03
  1.894490e+01    1.642763e+03
  1.899802e+01    1.631300e+03
  1.905114e+01    1.626645e+03
  1.910425e+01    1.619295e+03
  1.915737e+01    1.615630e+03
  1.921049e+01    1.611306e+03
  1.926361e+01    1.607823e+03
  1.931673e+01    1.605130e+03
  1.936985e+01    1.603425e+03
  1.942296e+01    1.600124e+03
  1.947608e+01    1.599128e+03
  1.952920e+01    1.595278e+03
  1.958232e+01    1.595022e+03
  1.963544e+01    1.600343e+03
  1.968855e+01    1.585846e+03
  1.974167e+01    1.573648e+03
  1.979479e+01    1.578079e+03
  1.984791e+01    1.575999e+03
  1.990103e+01    1.573852e+03
  1.995414e+01    1.572218e+03
  2.000726e+01    1.568010e+03
  2.006038e+01    1.564822e+03
  2.011350e+01    1.561716e+03
  2.016662e+01    1.555322e+03
  2.021974e+01    1.558924e+03
  2.027285e+01    1.565797e+03
  2.032597e+01    1.548533e+03
  2.037909e+01    1.545216e+03
  2.043221e+01    1.540544e+03
  2.048533e+01    1.538963e+03
  2.053844e+01    1.537866e+03
  2.059156e+01    1.532564e+03
  2.064468e+01    1.528781e+03
  2.069780e+01    1.509043e+03
  2.075092e+01    1.484701e+03
  2.080404e+01    1.470902e+03
  2.085715e+01    1.488883e+03
  2.091027e+01    1.517171e+03
  2.096339e+01    1.524924e+03
  2.101651e+01    1.528698e+03
  2.106963e+01    1.533661e+03
  2.112274e+01    1.537768e+03
  2.117586e+01    1.538424e+03
  2.122898e+01    1.541900e+03
  2.128210e+01    1.538573e+03
  2.133522e+01    1.539131e+03
  2.138834e+01    1.536901e+03
  2.144145e+01    1.537331e+03
  2.149457e+01    1.536340e+03
  2.154769e+01    1.537329e+03
  2.160081e+01    1.535347e+03
  2.165393e+01    1.536015e+03
  2.170704e+01    1.537840e+03
  2.176016e+01    1.526137e+03
  2.181328e+01    1.535715e+03
  2.186640e+01    1.535760e+03
  2.191952e+01    1.535381e+03
  2.197263e+01    1.531858e+03
  2.202575e+01    1.529816e+03
  2.207887e+01    1.529221e+03
  2.213199e+01    1.527283e+03
  2.218511e+01    1.525612e+03
  2.223823e+01    1.525485e+03
  2.229134e+01    1.523615e+03
  2.234446e+01    1.522303e+03
  2.239758e+01    1.520949e+03
  2.245070e+01    1.518375e+03
  2.250382e+01    1.520081e+03
  2.255693e+01    1.517369e+03
  2.261005e+01    1.497063e+03
  2.266317e+01    1.485352e+03
  2.271629e+01    1.476419e+03
  2.276941e+01    1.465445e+03
  2.282253e+01    1.459513e+03
  2.287564e+01    1.454227e+03
  2.292876e+01    1.450080e+03
  2.298188e+01    1.445823e+03
  2.303500e+01    1.445102e+03
  2.308812e+01    1.439776e+03
  2.314123e+01    1.438625e+03
  2.319435e+01    1.433369e+03
  2.324747e+01    1.427206e+03
  2.330059e+01    1.422362e+03
  2.335371e+01    1.421754e+03
  2.340683e+01    1.416784e+03
  2.345994e+01    1.413599e+03
  2.351306e+01    1.409575e+03
  2.356618e+01    1.406017e+03
  2.361930e+01    1.400216e+03
  2.367242e+01    1.394511e+03
  2.372553e+01    1.388661e+03
  2.377865e+01    1.382158e+03
  2.383177e+01    1.378490e+03
  2.388489e+01    1.374016e+03
  2.393801e+01    1.369497e+03
  2.399113e+01    1.368081e+03
  2.404424e+01    1.366541e+03
  2.409736e+01    1.366878e+03
  2.415048e+01    1.360285e+03
  2.420360e+01    1.357977e+03
  2.425672e+01    1.352990e+03
  2.430983e+01    1.349834e+03
  2.436295e+01    1.347467e+03
  2.441607e+01    1.346563e+03
  2.446919e+01    1.340949e+03
  2.452231e+01    1.341306e+03
  2.457542e+01    1.340744e+03
  2.462854e+01    1.335298e+03
  2.468166e+01    1.335946e+03
  2.473478e+01    1.330253e+03
  2.478790e+01    1.324680e+03
  2.484102e+01    1.322309e+03
  2.489413e+01    1.316399e+03
  2.494725e+01    1.311512e+03
  2.500037e+01    1.307635e+03
  2.505349e+01    1.300930e+03
  2.510661e+01    1.296042e+03
  2.515972e+01    1.295207e+03
  2.521284e+01    1.293715e+03
  2.526596e+01    1.292762e+03
  2.531908e+01    1.284262e+03
  2.537220e+01    1.282896e+03
  2.542532e+01    1.279987e+03
  2.547843e+01    1.279893e+03
  2.553155e+01    1.273688e+03
  2.558467e+01    1.265151e+03
  2.563779e+01    1.259108e+03
  2.569091e+01    1.252573e+03
  2.574402e+01    1.241962e+03
  2.579714e+01    1.235785e+03
  2.585026e+01    1.228167e+03
  2.590338e+01    1.222727e+03
  2.595650e+01    1.221558e+03
  2.600962e+01    1.217599e+03
  2.606273e+01    1.218049e+03
  2.611585e+01    1.216742e+03
  2.616897e+01    1.218739e+03
  2.622209e+01    1.214859e+03
  2.627521e+01    1.209880e+03
  2.632832e+01    1.199818e+03
  2.638144e+01    1.202778e+03
  2.643456e+01    1.204057e+03
  2.648768e+01    1.171769e+03
  2.654080e+01    1.164469e+03
