# == pyFAI calibration ==
# Distance Sample to Detector: 0.2946421923531691 m
# PONI: 2.875e-01, 2.439e-01 m
# Rotations: -0.010990 -0.009181 0.000003 rad
# 
# == Fit2d calibration ==
# Distance Sample-beamCenter: 294.672 mm
# Center: x=1436.809, y=1655.851 pix
# Tilt: 0.820 deg  TiltPlanRot: -39.874 deg
# 
# Detector Pilatus 2M	 PixelSize= 1.720e-04, 1.720e-04 m
#    Detector has a mask: True 
#    Detector has a dark current: False 
#    detector has a flat field: False 
# 
# Wavelength: 2.0732883349524408e-11 m
# Mask applied: from detector
# Dark current applied: False
# Flat field applied: False
# Polarization factor: None
# Normalization factor: 1.0
# --> /gpfs/current/raw/FMue_3/FMue_3_20231024_175355_00170.dat
#        q_A^-1             I 
  3.483473e-02             nan
  8.795289e-02             nan
  1.410711e-01             nan
  1.941892e-01             nan
  2.473074e-01             nan
  3.004255e-01             nan
  3.535437e-01             nan
  4.066619e-01    1.154871e+04
  4.597800e-01    1.053229e+04
  5.128982e-01    8.952449e+03
  5.660163e-01    8.128137e+03
  6.191345e-01    7.830204e+03
  6.722527e-01    7.718979e+03
  7.253708e-01    7.760208e+03
  7.784890e-01    7.804449e+03
  8.316071e-01    7.948147e+03
  8.847253e-01    8.081258e+03
  9.378435e-01    8.258026e+03
  9.909616e-01    8.470107e+03
  1.044080e+00    8.780214e+03
  1.097198e+00    9.198585e+03
  1.150316e+00    9.803138e+03
  1.203434e+00    1.051489e+04
  1.256552e+00    1.138652e+04
  1.309671e+00    1.252881e+04
  1.362789e+00    1.360897e+04
  1.415907e+00    1.405349e+04
  1.469025e+00    1.416415e+04
  1.522143e+00    1.401863e+04
  1.575261e+00    1.346021e+04
  1.628380e+00    1.271200e+04
  1.681498e+00    1.179969e+04
  1.734616e+00    1.085767e+04
  1.787734e+00    1.004790e+04
  1.840852e+00    9.335814e+03
  1.893970e+00    8.761871e+03
  1.947089e+00    8.365811e+03
  2.000207e+00    8.064886e+03
  2.053325e+00    7.967387e+03
  2.106443e+00    8.404524e+03
  2.159561e+00    9.368676e+03
  2.212679e+00    9.617331e+03
  2.265797e+00    9.203151e+03
  2.318916e+00    8.466225e+03
  2.372034e+00    7.772135e+03
  2.425152e+00    8.027213e+03
  2.478270e+00    9.460031e+03
  2.531388e+00    1.258661e+04
  2.584506e+00    1.353317e+04
  2.637625e+00    1.052742e+04
  2.690743e+00    8.408522e+03
  2.743861e+00    7.566164e+03
  2.796979e+00    6.323055e+03
  2.850097e+00    5.443306e+03
  2.903215e+00    5.150516e+03
  2.956334e+00    5.097155e+03
  3.009452e+00    5.447248e+03
  3.062570e+00    6.903919e+03
  3.115688e+00    9.147497e+03
  3.168806e+00    8.905776e+03
  3.221924e+00    7.175748e+03
  3.275043e+00    5.661923e+03
  3.328161e+00    4.826942e+03
  3.381279e+00    4.603348e+03
  3.434397e+00    4.608330e+03
  3.487515e+00    4.687753e+03
  3.540633e+00    4.614115e+03
  3.593751e+00    4.535810e+03
  3.646870e+00    4.593872e+03
  3.699988e+00    4.760403e+03
  3.753106e+00    5.047732e+03
  3.806224e+00    5.277120e+03
  3.859342e+00    5.316330e+03
  3.912460e+00    5.574522e+03
  3.965579e+00    6.354870e+03
  4.018697e+00    7.245499e+03
  4.071815e+00    7.275920e+03
  4.124933e+00    6.718997e+03
  4.178051e+00    6.289924e+03
  4.231169e+00    6.144471e+03
  4.284288e+00    6.525070e+03
  4.337406e+00    8.088186e+03
  4.390524e+00    1.021014e+04
  4.443642e+00    1.183632e+04
  4.496760e+00    1.203028e+04
  4.549878e+00    8.385264e+03
  4.602997e+00    5.826380e+03
  4.656115e+00    5.207698e+03
  4.709233e+00    5.009950e+03
  4.762351e+00    4.959375e+03
  4.815469e+00    5.007064e+03
  4.868587e+00    5.127478e+03
  4.921705e+00    5.201085e+03
  4.974824e+00    5.283304e+03
  5.027942e+00    5.423868e+03
  5.081060e+00    5.595699e+03
  5.134178e+00    5.414975e+03
  5.187296e+00    4.989707e+03
  5.240414e+00    4.616079e+03
  5.293533e+00    4.416951e+03
  5.346651e+00    4.324833e+03
  5.399769e+00    4.247209e+03
  5.452887e+00    4.215410e+03
  5.506005e+00    4.088054e+03
  5.559123e+00    3.740879e+03
  5.612242e+00    3.565678e+03
  5.665360e+00    3.528857e+03
  5.718478e+00    3.515675e+03
  5.771596e+00    3.559982e+03
  5.824714e+00    3.651059e+03
  5.877832e+00    3.823666e+03
  5.930951e+00    4.061656e+03
  5.984069e+00    4.095505e+03
  6.037187e+00    3.904737e+03
  6.090305e+00    3.734440e+03
  6.143423e+00    3.699364e+03
  6.196541e+00    3.835164e+03
  6.249660e+00    3.961579e+03
  6.302778e+00    3.834005e+03
  6.355896e+00    3.575187e+03
  6.409014e+00    3.479725e+03
  6.462132e+00    3.417106e+03
  6.515250e+00    3.376077e+03
  6.568368e+00    3.402066e+03
  6.621487e+00    3.468089e+03
  6.674605e+00    3.575128e+03
  6.727723e+00    3.620142e+03
  6.780841e+00    3.473390e+03
  6.833959e+00    3.295326e+03
  6.887077e+00    3.206562e+03
  6.940196e+00    3.176484e+03
  6.993314e+00    3.204231e+03
  7.046432e+00    3.207202e+03
  7.099550e+00    3.134663e+03
  7.152668e+00    3.074620e+03
  7.205786e+00    3.030082e+03
  7.258905e+00    3.019137e+03
  7.312023e+00    3.076643e+03
  7.365141e+00    3.171181e+03
  7.418259e+00    3.216179e+03
  7.471377e+00    3.218595e+03
  7.524495e+00    3.286132e+03
  7.577614e+00    3.419340e+03
  7.630732e+00    3.453237e+03
  7.683850e+00    3.488145e+03
  7.736968e+00    3.553622e+03
  7.790086e+00    3.455191e+03
  7.843204e+00    3.286444e+03
  7.896322e+00    3.163946e+03
  7.949441e+00    3.126027e+03
  8.002559e+00    3.130459e+03
  8.055677e+00    3.097359e+03
  8.108795e+00    3.028415e+03
  8.161913e+00    2.982407e+03
  8.215031e+00    2.935145e+03
  8.268150e+00    2.891888e+03
  8.321268e+00    2.855907e+03
  8.374386e+00    2.836816e+03
  8.427504e+00    2.818206e+03
  8.480622e+00    2.805211e+03
  8.533740e+00    2.765658e+03
  8.586859e+00    2.800190e+03
  8.639977e+00    2.785232e+03
  8.693095e+00    2.774307e+03
  8.746213e+00    2.781896e+03
  8.799331e+00    2.769597e+03
  8.852449e+00    2.749234e+03
  8.905568e+00    2.750429e+03
  8.958686e+00    2.751776e+03
  9.011804e+00    2.748367e+03
  9.064922e+00    2.700470e+03
  9.118040e+00    2.671552e+03
  9.171158e+00    2.649158e+03
  9.224276e+00    2.610017e+03
  9.277395e+00    2.563667e+03
  9.330513e+00    2.534499e+03
  9.383631e+00    2.512625e+03
  9.436749e+00    2.500127e+03
  9.489867e+00    2.512777e+03
  9.542985e+00    2.519391e+03
  9.596104e+00    2.519083e+03
  9.649222e+00    2.525612e+03
  9.702340e+00    2.517576e+03
  9.755458e+00    2.503980e+03
  9.808576e+00    2.497995e+03
  9.861694e+00    2.496672e+03
  9.914813e+00    2.484510e+03
  9.967931e+00    2.461141e+03
  1.002105e+01    2.434064e+03
  1.007417e+01    2.413463e+03
  1.012729e+01    2.394565e+03
  1.018040e+01    2.377244e+03
  1.023352e+01    2.342524e+03
  1.028664e+01    2.307477e+03
  1.033976e+01    2.292185e+03
  1.039288e+01    2.313241e+03
  1.044599e+01    2.304605e+03
  1.049911e+01    2.304933e+03
  1.055223e+01    2.294337e+03
  1.060535e+01    2.295771e+03
  1.065847e+01    2.286322e+03
  1.071158e+01    2.275699e+03
  1.076470e+01    2.266226e+03
  1.081782e+01    2.265065e+03
  1.087094e+01    2.254644e+03
  1.092406e+01    2.268675e+03
  1.097718e+01    2.272005e+03
  1.103029e+01    2.271642e+03
  1.108341e+01    2.261039e+03
  1.113653e+01    2.242151e+03
  1.118965e+01    2.220514e+03
  1.124277e+01    2.209593e+03
  1.129588e+01    2.204947e+03
  1.134900e+01    2.199158e+03
  1.140212e+01    2.206959e+03
  1.145524e+01    2.207600e+03
  1.150836e+01    2.215812e+03
  1.156148e+01    2.213662e+03
  1.161459e+01    2.216038e+03
  1.166771e+01    2.197620e+03
  1.172083e+01    2.198967e+03
  1.177395e+01    2.178756e+03
  1.182707e+01    2.170931e+03
  1.188018e+01    2.174276e+03
  1.193330e+01    2.158037e+03
  1.198642e+01    2.138767e+03
  1.203954e+01    2.120508e+03
  1.209266e+01    2.116147e+03
  1.214578e+01    2.109774e+03
  1.219889e+01    2.115629e+03
  1.225201e+01    2.116196e+03
  1.230513e+01    2.110608e+03
  1.235825e+01    2.108781e+03
  1.241137e+01    2.090551e+03
  1.246448e+01    2.087867e+03
  1.251760e+01    2.084383e+03
  1.257072e+01    2.081471e+03
  1.262384e+01    2.087333e+03
  1.267696e+01    2.072994e+03
  1.273008e+01    2.057786e+03
  1.278319e+01    2.050897e+03
  1.283631e+01    2.037796e+03
  1.288943e+01    2.031065e+03
  1.294255e+01    2.020101e+03
  1.299567e+01    2.016774e+03
  1.304878e+01    2.011860e+03
  1.310190e+01    2.009833e+03
  1.315502e+01    2.005102e+03
  1.320814e+01    1.981976e+03
  1.326126e+01    1.960211e+03
  1.331437e+01    1.952358e+03
  1.336749e+01    1.944918e+03
  1.342061e+01    1.934038e+03
  1.347373e+01    1.955069e+03
  1.352685e+01    1.951753e+03
  1.357997e+01    1.940311e+03
  1.363308e+01    1.929470e+03
  1.368620e+01    1.922835e+03
  1.373932e+01    1.917609e+03
  1.379244e+01    1.911146e+03
  1.384556e+01    1.904615e+03
  1.389867e+01    1.894778e+03
  1.395179e+01    1.888079e+03
  1.400491e+01    1.885121e+03
  1.405803e+01    1.881360e+03
  1.411115e+01    1.873489e+03
  1.416427e+01    1.864740e+03
  1.421738e+01    1.860398e+03
  1.427050e+01    1.851207e+03
  1.432362e+01    1.852542e+03
  1.437674e+01    1.849443e+03
  1.442986e+01    1.838879e+03
  1.448297e+01    1.833946e+03
  1.453609e+01    1.827749e+03
  1.458921e+01    1.817945e+03
  1.464233e+01    1.814192e+03
  1.469545e+01    1.807774e+03
  1.474857e+01    1.787579e+03
  1.480168e+01    1.797701e+03
  1.485480e+01    1.793717e+03
  1.490792e+01    1.788730e+03
  1.496104e+01    1.781782e+03
  1.501416e+01    1.780538e+03
  1.506727e+01    1.777099e+03
  1.512039e+01    1.774135e+03
  1.517351e+01    1.786809e+03
  1.522663e+01    1.798711e+03
  1.527975e+01    1.797433e+03
  1.533286e+01    1.780914e+03
  1.538598e+01    1.773117e+03
  1.543910e+01    1.764127e+03
  1.549222e+01    1.759021e+03
  1.554534e+01    1.758607e+03
  1.559846e+01    1.756777e+03
  1.565157e+01    1.749674e+03
  1.570469e+01    1.744721e+03
  1.575781e+01    1.741503e+03
  1.581093e+01    1.737802e+03
  1.586405e+01    1.737136e+03
  1.591716e+01    1.729422e+03
  1.597028e+01    1.724440e+03
  1.602340e+01    1.709083e+03
  1.607652e+01    1.697804e+03
  1.612964e+01    1.674782e+03
  1.618276e+01    1.663116e+03
  1.623587e+01    1.665372e+03
  1.628899e+01    1.681359e+03
  1.634211e+01    1.678821e+03
  1.639523e+01    1.673468e+03
  1.644835e+01    1.674974e+03
  1.650146e+01    1.669546e+03
  1.655458e+01    1.668465e+03
  1.660770e+01    1.665440e+03
  1.666082e+01    1.658814e+03
  1.671394e+01    1.658507e+03
  1.676706e+01    1.652332e+03
  1.682017e+01    1.666408e+03
  1.687329e+01    1.654577e+03
  1.692641e+01    1.649378e+03
  1.697953e+01    1.645349e+03
  1.703265e+01    1.641661e+03
  1.708576e+01    1.639364e+03
  1.713888e+01    1.631679e+03
  1.719200e+01    1.629912e+03
  1.724512e+01    1.622156e+03
  1.729824e+01    1.622491e+03
  1.735136e+01    1.616453e+03
  1.740447e+01    1.594652e+03
  1.745759e+01    1.602246e+03
  1.751071e+01    1.604642e+03
  1.756383e+01    1.616120e+03
  1.761695e+01    1.598953e+03
  1.767006e+01    1.596976e+03
  1.772318e+01    1.587612e+03
  1.777630e+01    1.587467e+03
  1.782942e+01    1.579040e+03
  1.788254e+01    1.574615e+03
  1.793565e+01    1.571969e+03
  1.798877e+01    1.569510e+03
  1.804189e+01    1.563574e+03
  1.809501e+01    1.559847e+03
  1.814813e+01    1.556813e+03
  1.820125e+01    1.551531e+03
  1.825436e+01    1.555877e+03
  1.830748e+01    1.549706e+03
  1.836060e+01    1.544522e+03
  1.841372e+01    1.542975e+03
  1.846684e+01    1.537893e+03
  1.851995e+01    1.518859e+03
  1.857307e+01    1.504878e+03
  1.862619e+01    1.495234e+03
  1.867931e+01    1.492944e+03
  1.873243e+01    1.510821e+03
  1.878555e+01    1.512735e+03
  1.883866e+01    1.512382e+03
  1.889178e+01    1.510335e+03
  1.894490e+01    1.522265e+03
  1.899802e+01    1.513446e+03
  1.905114e+01    1.507902e+03
  1.910425e+01    1.502945e+03
  1.915737e+01    1.498382e+03
  1.921049e+01    1.495533e+03
  1.926361e+01    1.491846e+03
  1.931673e+01    1.488179e+03
  1.936985e+01    1.486791e+03
  1.942296e+01    1.482532e+03
  1.947608e+01    1.482860e+03
  1.952920e+01    1.478964e+03
  1.958232e+01    1.480287e+03
  1.963544e+01    1.485970e+03
  1.968855e+01    1.470407e+03
  1.974167e+01    1.458703e+03
  1.979479e+01    1.463891e+03
  1.984791e+01    1.462282e+03
  1.990103e+01    1.460114e+03
  1.995414e+01    1.457565e+03
  2.000726e+01    1.455059e+03
  2.006038e+01    1.451087e+03
  2.011350e+01    1.448098e+03
  2.016662e+01    1.442455e+03
  2.021974e+01    1.444702e+03
  2.027285e+01    1.450947e+03
  2.032597e+01    1.435503e+03
  2.037909e+01    1.430556e+03
  2.043221e+01    1.426396e+03
  2.048533e+01    1.422907e+03
  2.053844e+01    1.424454e+03
  2.059156e+01    1.417956e+03
  2.064468e+01    1.414872e+03
  2.069780e+01    1.397557e+03
  2.075092e+01    1.372815e+03
  2.080404e+01    1.359705e+03
  2.085715e+01    1.378110e+03
  2.091027e+01    1.404442e+03
  2.096339e+01    1.411087e+03
  2.101651e+01    1.416473e+03
  2.106963e+01    1.419072e+03
  2.112274e+01    1.422748e+03
  2.117586e+01    1.423549e+03
  2.122898e+01    1.426996e+03
  2.128210e+01    1.423255e+03
  2.133522e+01    1.425978e+03
  2.138834e+01    1.423057e+03
  2.144145e+01    1.422075e+03
  2.149457e+01    1.422754e+03
  2.154769e+01    1.421660e+03
  2.160081e+01    1.420924e+03
  2.165393e+01    1.422385e+03
  2.170704e+01    1.422475e+03
  2.176016e+01    1.412757e+03
  2.181328e+01    1.419953e+03
  2.186640e+01    1.422472e+03
  2.191952e+01    1.420123e+03
  2.197263e+01    1.419226e+03
  2.202575e+01    1.416655e+03
  2.207887e+01    1.416700e+03
  2.213199e+01    1.412867e+03
  2.218511e+01    1.412547e+03
  2.223823e+01    1.412638e+03
  2.229134e+01    1.410600e+03
  2.234446e+01    1.408807e+03
  2.239758e+01    1.410109e+03
  2.245070e+01    1.406571e+03
  2.250382e+01    1.408708e+03
  2.255693e+01    1.404516e+03
  2.261005e+01    1.388166e+03
  2.266317e+01    1.374977e+03
  2.271629e+01    1.366662e+03
  2.276941e+01    1.357539e+03
  2.282253e+01    1.351229e+03
  2.287564e+01    1.347132e+03
  2.292876e+01    1.340399e+03
  2.298188e+01    1.339227e+03
  2.303500e+01    1.336140e+03
  2.308812e+01    1.334633e+03
  2.314123e+01    1.332320e+03
  2.319435e+01    1.328200e+03
  2.324747e+01    1.319784e+03
  2.330059e+01    1.317021e+03
  2.335371e+01    1.314650e+03
  2.340683e+01    1.310717e+03
  2.345994e+01    1.307210e+03
  2.351306e+01    1.303370e+03
  2.356618e+01    1.299206e+03
  2.361930e+01    1.292239e+03
  2.367242e+01    1.289126e+03
  2.372553e+01    1.283700e+03
  2.377865e+01    1.279085e+03
  2.383177e+01    1.272649e+03
  2.388489e+01    1.269092e+03
  2.393801e+01    1.264665e+03
  2.399113e+01    1.264948e+03
  2.404424e+01    1.264276e+03
  2.409736e+01    1.261798e+03
  2.415048e+01    1.258595e+03
  2.420360e+01    1.256129e+03
  2.425672e+01    1.251630e+03
  2.430983e+01    1.249005e+03
  2.436295e+01    1.246786e+03
  2.441607e+01    1.246036e+03
  2.446919e+01    1.243260e+03
  2.452231e+01    1.243268e+03
  2.457542e+01    1.239010e+03
  2.462854e+01    1.238156e+03
  2.468166e+01    1.235189e+03
  2.473478e+01    1.229751e+03
  2.478790e+01    1.222386e+03
  2.484102e+01    1.220304e+03
  2.489413e+01    1.215392e+03
  2.494725e+01    1.212301e+03
  2.500037e+01    1.208389e+03
  2.505349e+01    1.201941e+03
  2.510661e+01    1.197959e+03
  2.515972e+01    1.195578e+03
  2.521284e+01    1.195345e+03
  2.526596e+01    1.193743e+03
  2.531908e+01    1.188968e+03
  2.537220e+01    1.189151e+03
  2.542532e+01    1.185661e+03
  2.547843e+01    1.184314e+03
  2.553155e+01    1.180504e+03
  2.558467e+01    1.172569e+03
  2.563779e+01    1.167217e+03
  2.569091e+01    1.159350e+03
  2.574402e+01    1.152469e+03
  2.579714e+01    1.146698e+03
  2.585026e+01    1.137771e+03
  2.590338e+01    1.131516e+03
  2.595650e+01    1.129454e+03
  2.600962e+01    1.127590e+03
  2.606273e+01    1.129066e+03
  2.611585e+01    1.127126e+03
  2.616897e+01    1.129463e+03
  2.622209e+01    1.122741e+03
  2.627521e+01    1.117125e+03
  2.632832e+01    1.113002e+03
  2.638144e+01    1.113061e+03
  2.643456e+01    1.104707e+03
  2.648768e+01    1.086943e+03
  2.654080e+01    1.068346e+03
