# == pyFAI calibration ==
# Distance Sample to Detector: 0.2946421923531691 m
# PONI: 2.875e-01, 2.439e-01 m
# Rotations: -0.010990 -0.009181 0.000003 rad
# 
# == Fit2d calibration ==
# Distance Sample-beamCenter: 294.672 mm
# Center: x=1436.809, y=1655.851 pix
# Tilt: 0.820 deg  TiltPlanRot: -39.874 deg
# 
# Detector Pilatus 2M	 PixelSize= 1.720e-04, 1.720e-04 m
#    Detector has a mask: True 
#    Detector has a dark current: False 
#    detector has a flat field: False 
# 
# Wavelength: 2.0732883349524408e-11 m
# Mask applied: from detector
# Dark current applied: False
# Flat field applied: False
# Polarization factor: None
# Normalization factor: 1.0
# --> /gpfs/current/raw/FMue_3/FMue_3_20231024_175355_00095.dat
#        q_A^-1             I 
  3.483473e-02             nan
  8.795289e-02             nan
  1.410711e-01             nan
  1.941892e-01             nan
  2.473074e-01             nan
  3.004255e-01             nan
  3.535437e-01             nan
  4.066619e-01    1.362468e+04
  4.597800e-01    1.239641e+04
  5.128982e-01    1.042293e+04
  5.660163e-01    9.320028e+03
  6.191345e-01    8.821610e+03
  6.722527e-01    8.567146e+03
  7.253708e-01    8.511313e+03
  7.784890e-01    8.504605e+03
  8.316071e-01    8.639448e+03
  8.847253e-01    8.808631e+03
  9.378435e-01    9.241521e+03
  9.909616e-01    9.974512e+03
  1.044080e+00    1.010322e+04
  1.097198e+00    9.904812e+03
  1.150316e+00    1.034292e+04
  1.203434e+00    1.125989e+04
  1.256552e+00    1.219010e+04
  1.309671e+00    1.294800e+04
  1.362789e+00    1.397351e+04
  1.415907e+00    1.453083e+04
  1.469025e+00    1.463212e+04
  1.522143e+00    1.445264e+04
  1.575261e+00    1.382661e+04
  1.628380e+00    1.308151e+04
  1.681498e+00    1.213697e+04
  1.734616e+00    1.119423e+04
  1.787734e+00    1.036248e+04
  1.840852e+00    9.668970e+03
  1.893970e+00    9.182806e+03
  1.947089e+00    9.125117e+03
  2.000207e+00    8.849410e+03
  2.053325e+00    8.325972e+03
  2.106443e+00    8.366715e+03
  2.159561e+00    8.771449e+03
  2.212679e+00    9.028799e+03
  2.265797e+00    9.150255e+03
  2.318916e+00    8.770306e+03
  2.372034e+00    8.112302e+03
  2.425152e+00    8.311548e+03
  2.478270e+00    9.211817e+03
  2.531388e+00    1.085861e+04
  2.584506e+00    1.178711e+04
  2.637625e+00    1.081805e+04
  2.690743e+00    9.355449e+03
  2.743861e+00    8.216096e+03
  2.796979e+00    6.774452e+03
  2.850097e+00    5.753766e+03
  2.903215e+00    5.411161e+03
  2.956334e+00    5.346184e+03
  3.009452e+00    5.632110e+03
  3.062570e+00    6.745542e+03
  3.115688e+00    9.028348e+03
  3.168806e+00    9.422036e+03
  3.221924e+00    7.727533e+03
  3.275043e+00    6.153186e+03
  3.328161e+00    5.475815e+03
  3.381279e+00    5.553059e+03
  3.434397e+00    5.224375e+03
  3.487515e+00    4.970744e+03
  3.540633e+00    4.890386e+03
  3.593751e+00    4.738583e+03
  3.646870e+00    4.743209e+03
  3.699988e+00    4.885616e+03
  3.753106e+00    5.104622e+03
  3.806224e+00    5.264733e+03
  3.859342e+00    5.385309e+03
  3.912460e+00    5.615594e+03
  3.965579e+00    6.010214e+03
  4.018697e+00    6.549473e+03
  4.071815e+00    6.980349e+03
  4.124933e+00    6.920376e+03
  4.178051e+00    6.600678e+03
  4.231169e+00    6.433183e+03
  4.284288e+00    6.746000e+03
  4.337406e+00    7.801642e+03
  4.390524e+00    9.282502e+03
  4.443642e+00    1.160505e+04
  4.496760e+00    1.284467e+04
  4.549878e+00    9.263915e+03
  4.602997e+00    6.150143e+03
  4.656115e+00    5.397117e+03
  4.709233e+00    5.244202e+03
  4.762351e+00    5.343799e+03
  4.815469e+00    5.296669e+03
  4.868587e+00    5.196854e+03
  4.921705e+00    5.218525e+03
  4.974824e+00    5.307001e+03
  5.027942e+00    5.362696e+03
  5.081060e+00    5.445269e+03
  5.134178e+00    5.387130e+03
  5.187296e+00    5.172831e+03
  5.240414e+00    4.870186e+03
  5.293533e+00    4.653644e+03
  5.346651e+00    4.514042e+03
  5.399769e+00    4.413102e+03
  5.452887e+00    4.394897e+03
  5.506005e+00    4.363988e+03
  5.559123e+00    4.003406e+03
  5.612242e+00    3.739470e+03
  5.665360e+00    3.649025e+03
  5.718478e+00    3.564404e+03
  5.771596e+00    3.541424e+03
  5.824714e+00    3.592190e+03
  5.877832e+00    3.709279e+03
  5.930951e+00    3.866480e+03
  5.984069e+00    3.989570e+03
  6.037187e+00    3.987017e+03
  6.090305e+00    3.884021e+03
  6.143423e+00    3.772681e+03
  6.196541e+00    3.826953e+03
  6.249660e+00    4.003138e+03
  6.302778e+00    3.985634e+03
  6.355896e+00    3.719861e+03
  6.409014e+00    3.579149e+03
  6.462132e+00    3.501408e+03
  6.515250e+00    3.435094e+03
  6.568368e+00    3.446520e+03
  6.621487e+00    3.470916e+03
  6.674605e+00    3.509948e+03
  6.727723e+00    3.578125e+03
  6.780841e+00    3.567381e+03
  6.833959e+00    3.474271e+03
  6.887077e+00    3.380483e+03
  6.940196e+00    3.313096e+03
  6.993314e+00    3.337382e+03
  7.046432e+00    3.359724e+03
  7.099550e+00    3.272023e+03
  7.152668e+00    3.195851e+03
  7.205786e+00    3.140976e+03
  7.258905e+00    3.099495e+03
  7.312023e+00    3.115629e+03
  7.365141e+00    3.164277e+03
  7.418259e+00    3.220139e+03
  7.471377e+00    3.271131e+03
  7.524495e+00    3.334102e+03
  7.577614e+00    3.411951e+03
  7.630732e+00    3.472706e+03
  7.683850e+00    3.586654e+03
  7.736968e+00    3.732624e+03
  7.790086e+00    3.668481e+03
  7.843204e+00    3.436296e+03
  7.896322e+00    3.238583e+03
  7.949441e+00    3.139387e+03
  8.002559e+00    3.117407e+03
  8.055677e+00    3.118537e+03
  8.108795e+00    3.107291e+03
  8.161913e+00    3.089729e+03
  8.215031e+00    3.031447e+03
  8.268150e+00    2.968140e+03
  8.321268e+00    2.922401e+03
  8.374386e+00    2.898663e+03
  8.427504e+00    2.880646e+03
  8.480622e+00    2.858310e+03
  8.533740e+00    2.803059e+03
  8.586859e+00    2.829045e+03
  8.639977e+00    2.830775e+03
  8.693095e+00    2.823751e+03
  8.746213e+00    2.824904e+03
  8.799331e+00    2.812234e+03
  8.852449e+00    2.808763e+03
  8.905568e+00    2.825478e+03
  8.958686e+00    2.831194e+03
  9.011804e+00    2.833805e+03
  9.064922e+00    2.771681e+03
  9.118040e+00    2.706333e+03
  9.171158e+00    2.681644e+03
  9.224276e+00    2.668741e+03
  9.277395e+00    2.635867e+03
  9.330513e+00    2.615386e+03
  9.383631e+00    2.603496e+03
  9.436749e+00    2.589002e+03
  9.489867e+00    2.591035e+03
  9.542985e+00    2.587713e+03
  9.596104e+00    2.567867e+03
  9.649222e+00    2.565088e+03
  9.702340e+00    2.564424e+03
  9.755458e+00    2.560737e+03
  9.808576e+00    2.557100e+03
  9.861694e+00    2.557783e+03
  9.914813e+00    2.562085e+03
  9.967931e+00    2.546633e+03
  1.002105e+01    2.504377e+03
  1.007417e+01    2.459686e+03
  1.012729e+01    2.433469e+03
  1.018040e+01    2.433640e+03
  1.023352e+01    2.420147e+03
  1.028664e+01    2.389277e+03
  1.033976e+01    2.371050e+03
  1.039288e+01    2.384436e+03
  1.044599e+01    2.370825e+03
  1.049911e+01    2.367551e+03
  1.055223e+01    2.348418e+03
  1.060535e+01    2.347274e+03
  1.065847e+01    2.339187e+03
  1.071158e+01    2.335820e+03
  1.076470e+01    2.324795e+03
  1.081782e+01    2.322877e+03
  1.087094e+01    2.311443e+03
  1.092406e+01    2.316233e+03
  1.097718e+01    2.319636e+03
  1.103029e+01    2.321000e+03
  1.108341e+01    2.317709e+03
  1.113653e+01    2.307625e+03
  1.118965e+01    2.290737e+03
  1.124277e+01    2.276571e+03
  1.129588e+01    2.270580e+03
  1.134900e+01    2.257905e+03
  1.140212e+01    2.258328e+03
  1.145524e+01    2.253897e+03
  1.150836e+01    2.258871e+03
  1.156148e+01    2.255061e+03
  1.161459e+01    2.262407e+03
  1.166771e+01    2.256850e+03
  1.172083e+01    2.265787e+03
  1.177395e+01    2.248777e+03
  1.182707e+01    2.238724e+03
  1.188018e+01    2.237770e+03
  1.193330e+01    2.220001e+03
  1.198642e+01    2.201828e+03
  1.203954e+01    2.179943e+03
  1.209266e+01    2.171532e+03
  1.214578e+01    2.159098e+03
  1.219889e+01    2.160857e+03
  1.225201e+01    2.162600e+03
  1.230513e+01    2.157177e+03
  1.235825e+01    2.159315e+03
  1.241137e+01    2.145808e+03
  1.246448e+01    2.144995e+03
  1.251760e+01    2.140479e+03
  1.257072e+01    2.135029e+03
  1.262384e+01    2.139539e+03
  1.267696e+01    2.123155e+03
  1.273008e+01    2.110492e+03
  1.278319e+01    2.101484e+03
  1.283631e+01    2.092557e+03
  1.288943e+01    2.087222e+03
  1.294255e+01    2.076152e+03
  1.299567e+01    2.069093e+03
  1.304878e+01    2.063148e+03
  1.310190e+01    2.060836e+03
  1.315502e+01    2.056770e+03
  1.320814e+01    2.034803e+03
  1.326126e+01    2.012272e+03
  1.331437e+01    1.999985e+03
  1.336749e+01    1.994117e+03
  1.342061e+01    1.982193e+03
  1.347373e+01    2.008323e+03
  1.352685e+01    2.010958e+03
  1.357997e+01    1.999483e+03
  1.363308e+01    1.986967e+03
  1.368620e+01    1.977330e+03
  1.373932e+01    1.968333e+03
  1.379244e+01    1.962382e+03
  1.384556e+01    1.957040e+03
  1.389867e+01    1.947256e+03
  1.395179e+01    1.941267e+03
  1.400491e+01    1.938174e+03
  1.405803e+01    1.933044e+03
  1.411115e+01    1.926396e+03
  1.416427e+01    1.915987e+03
  1.421738e+01    1.912646e+03
  1.427050e+01    1.905313e+03
  1.432362e+01    1.905942e+03
  1.437674e+01    1.899682e+03
  1.442986e+01    1.889410e+03
  1.448297e+01    1.881679e+03
  1.453609e+01    1.875047e+03
  1.458921e+01    1.864484e+03
  1.464233e+01    1.860834e+03
  1.469545e+01    1.855653e+03
  1.474857e+01    1.835222e+03
  1.480168e+01    1.845845e+03
  1.485480e+01    1.841561e+03
  1.490792e+01    1.839333e+03
  1.496104e+01    1.831607e+03
  1.501416e+01    1.828561e+03
  1.506727e+01    1.823300e+03
  1.512039e+01    1.819846e+03
  1.517351e+01    1.833907e+03
  1.522663e+01    1.846101e+03
  1.527975e+01    1.843402e+03
  1.533286e+01    1.827395e+03
  1.538598e+01    1.817437e+03
  1.543910e+01    1.809172e+03
  1.549222e+01    1.807161e+03
  1.554534e+01    1.807926e+03
  1.559846e+01    1.805548e+03
  1.565157e+01    1.798541e+03
  1.570469e+01    1.791392e+03
  1.575781e+01    1.787534e+03
  1.581093e+01    1.786271e+03
  1.586405e+01    1.783175e+03
  1.591716e+01    1.778063e+03
  1.597028e+01    1.772091e+03
  1.602340e+01    1.757141e+03
  1.607652e+01    1.747080e+03
  1.612964e+01    1.724425e+03
  1.618276e+01    1.710430e+03
  1.623587e+01    1.710734e+03
  1.628899e+01    1.726726e+03
  1.634211e+01    1.724500e+03
  1.639523e+01    1.719111e+03
  1.644835e+01    1.721023e+03
  1.650146e+01    1.714754e+03
  1.655458e+01    1.712396e+03
  1.660770e+01    1.709052e+03
  1.666082e+01    1.704795e+03
  1.671394e+01    1.705278e+03
  1.676706e+01    1.700027e+03
  1.682017e+01    1.712656e+03
  1.687329e+01    1.702410e+03
  1.692641e+01    1.696305e+03
  1.697953e+01    1.692029e+03
  1.703265e+01    1.687881e+03
  1.708576e+01    1.684932e+03
  1.713888e+01    1.678145e+03
  1.719200e+01    1.676641e+03
  1.724512e+01    1.668577e+03
  1.729824e+01    1.670489e+03
  1.735136e+01    1.662567e+03
  1.740447e+01    1.640768e+03
  1.745759e+01    1.648795e+03
  1.751071e+01    1.648988e+03
  1.756383e+01    1.659642e+03
  1.761695e+01    1.643379e+03
  1.767006e+01    1.640002e+03
  1.772318e+01    1.631128e+03
  1.777630e+01    1.631748e+03
  1.782942e+01    1.623837e+03
  1.788254e+01    1.618312e+03
  1.793565e+01    1.616376e+03
  1.798877e+01    1.614766e+03
  1.804189e+01    1.607028e+03
  1.809501e+01    1.601780e+03
  1.814813e+01    1.598680e+03
  1.820125e+01    1.593599e+03
  1.825436e+01    1.600384e+03
  1.830748e+01    1.593558e+03
  1.836060e+01    1.589609e+03
  1.841372e+01    1.583987e+03
  1.846684e+01    1.580093e+03
  1.851995e+01    1.559041e+03
  1.857307e+01    1.547451e+03
  1.862619e+01    1.535717e+03
  1.867931e+01    1.533116e+03
  1.873243e+01    1.552395e+03
  1.878555e+01    1.553650e+03
  1.883866e+01    1.553199e+03
  1.889178e+01    1.552682e+03
  1.894490e+01    1.563958e+03
  1.899802e+01    1.554640e+03
  1.905114e+01    1.549886e+03
  1.910425e+01    1.544661e+03
  1.915737e+01    1.540812e+03
  1.921049e+01    1.535331e+03
  1.926361e+01    1.532024e+03
  1.931673e+01    1.530255e+03
  1.936985e+01    1.528632e+03
  1.942296e+01    1.525315e+03
  1.947608e+01    1.524933e+03
  1.952920e+01    1.521186e+03
  1.958232e+01    1.521114e+03
  1.963544e+01    1.527017e+03
  1.968855e+01    1.513446e+03
  1.974167e+01    1.500828e+03
  1.979479e+01    1.505240e+03
  1.984791e+01    1.505484e+03
  1.990103e+01    1.503319e+03
  1.995414e+01    1.499343e+03
  2.000726e+01    1.497825e+03
  2.006038e+01    1.494852e+03
  2.011350e+01    1.490828e+03
  2.016662e+01    1.484150e+03
  2.021974e+01    1.487848e+03
  2.027285e+01    1.493888e+03
  2.032597e+01    1.478020e+03
  2.037909e+01    1.474961e+03
  2.043221e+01    1.468687e+03
  2.048533e+01    1.466916e+03
  2.053844e+01    1.466673e+03
  2.059156e+01    1.460301e+03
  2.064468e+01    1.458220e+03
  2.069780e+01    1.438810e+03
  2.075092e+01    1.413837e+03
  2.080404e+01    1.400165e+03
  2.085715e+01    1.418498e+03
  2.091027e+01    1.445864e+03
  2.096339e+01    1.452798e+03
  2.101651e+01    1.457914e+03
  2.106963e+01    1.461161e+03
  2.112274e+01    1.465093e+03
  2.117586e+01    1.465620e+03
  2.122898e+01    1.467400e+03
  2.128210e+01    1.465916e+03
  2.133522e+01    1.465490e+03
  2.138834e+01    1.465206e+03
  2.144145e+01    1.465139e+03
  2.149457e+01    1.464737e+03
  2.154769e+01    1.463169e+03
  2.160081e+01    1.462999e+03
  2.165393e+01    1.464278e+03
  2.170704e+01    1.463830e+03
  2.176016e+01    1.454823e+03
  2.181328e+01    1.462866e+03
  2.186640e+01    1.462240e+03
  2.191952e+01    1.461262e+03
  2.197263e+01    1.460355e+03
  2.202575e+01    1.457442e+03
  2.207887e+01    1.457194e+03
  2.213199e+01    1.454774e+03
  2.218511e+01    1.455316e+03
  2.223823e+01    1.452439e+03
  2.229134e+01    1.452157e+03
  2.234446e+01    1.450570e+03
  2.239758e+01    1.450644e+03
  2.245070e+01    1.447125e+03
  2.250382e+01    1.449912e+03
  2.255693e+01    1.445742e+03
  2.261005e+01    1.428094e+03
  2.266317e+01    1.415340e+03
  2.271629e+01    1.406292e+03
  2.276941e+01    1.397188e+03
  2.282253e+01    1.389452e+03
  2.287564e+01    1.386410e+03
  2.292876e+01    1.381214e+03
  2.298188e+01    1.378245e+03
  2.303500e+01    1.377054e+03
  2.308812e+01    1.373286e+03
  2.314123e+01    1.370904e+03
  2.319435e+01    1.367081e+03
  2.324747e+01    1.360379e+03
  2.330059e+01    1.356764e+03
  2.335371e+01    1.351905e+03
  2.340683e+01    1.350446e+03
  2.345994e+01    1.345762e+03
  2.351306e+01    1.342853e+03
  2.356618e+01    1.338793e+03
  2.361930e+01    1.335137e+03
  2.367242e+01    1.329017e+03
  2.372553e+01    1.323869e+03
  2.377865e+01    1.318240e+03
  2.383177e+01    1.312267e+03
  2.388489e+01    1.307290e+03
  2.393801e+01    1.304272e+03
  2.399113e+01    1.301489e+03
  2.404424e+01    1.301914e+03
  2.409736e+01    1.300943e+03
  2.415048e+01    1.295782e+03
  2.420360e+01    1.291310e+03
  2.425672e+01    1.287867e+03
  2.430983e+01    1.286157e+03
  2.436295e+01    1.282009e+03
  2.441607e+01    1.281083e+03
  2.446919e+01    1.278485e+03
  2.452231e+01    1.278330e+03
  2.457542e+01    1.274676e+03
  2.462854e+01    1.271107e+03
  2.468166e+01    1.272476e+03
  2.473478e+01    1.266918e+03
  2.478790e+01    1.262084e+03
  2.484102e+01    1.257389e+03
  2.489413e+01    1.254920e+03
  2.494725e+01    1.249509e+03
  2.500037e+01    1.243656e+03
  2.505349e+01    1.239893e+03
  2.510661e+01    1.235302e+03
  2.515972e+01    1.230885e+03
  2.521284e+01    1.229632e+03
  2.526596e+01    1.230627e+03
  2.531908e+01    1.224607e+03
  2.537220e+01    1.224578e+03
  2.542532e+01    1.220849e+03
  2.547843e+01    1.220210e+03
  2.553155e+01    1.212877e+03
  2.558467e+01    1.206551e+03
  2.563779e+01    1.199849e+03
  2.569091e+01    1.191362e+03
  2.574402e+01    1.186084e+03
  2.579714e+01    1.178018e+03
  2.585026e+01    1.171037e+03
  2.590338e+01    1.164092e+03
  2.595650e+01    1.164328e+03
  2.600962e+01    1.160742e+03
  2.606273e+01    1.164503e+03
  2.611585e+01    1.158208e+03
  2.616897e+01    1.157264e+03
  2.622209e+01    1.157902e+03
  2.627521e+01    1.154454e+03
  2.632832e+01    1.144199e+03
  2.638144e+01    1.143427e+03
  2.643456e+01    1.135258e+03
  2.648768e+01    1.126115e+03
  2.654080e+01    1.095668e+03
