# == pyFAI calibration ==
# Distance Sample to Detector: 0.2946421923531691 m
# PONI: 2.875e-01, 2.439e-01 m
# Rotations: -0.010990 -0.009181 0.000003 rad
# 
# == Fit2d calibration ==
# Distance Sample-beamCenter: 294.672 mm
# Center: x=1436.809, y=1655.851 pix
# Tilt: 0.820 deg  TiltPlanRot: -39.874 deg
# 
# Detector Pilatus 2M	 PixelSize= 1.720e-04, 1.720e-04 m
#    Detector has a mask: True 
#    Detector has a dark current: False 
#    detector has a flat field: False 
# 
# Wavelength: 2.0732883349524408e-11 m
# Mask applied: from detector
# Dark current applied: False
# Flat field applied: False
# Polarization factor: None
# Normalization factor: 1.0
# --> /gpfs/current/raw/FMue_3/FMue_3_20231024_175355_00143.dat
#        q_A^-1             I 
  3.483473e-02             nan
  8.795289e-02             nan
  1.410711e-01             nan
  1.941892e-01             nan
  2.473074e-01             nan
  3.004255e-01             nan
  3.535437e-01             nan
  4.066619e-01    1.245460e+04
  4.597800e-01    1.139298e+04
  5.128982e-01    9.666335e+03
  5.660163e-01    8.736696e+03
  6.191345e-01    8.367681e+03
  6.722527e-01    8.212224e+03
  7.253708e-01    8.235529e+03
  7.784890e-01    8.268727e+03
  8.316071e-01    8.426076e+03
  8.847253e-01    8.550428e+03
  9.378435e-01    8.762025e+03
  9.909616e-01    8.981905e+03
  1.044080e+00    9.242335e+03
  1.097198e+00    9.571646e+03
  1.150316e+00    1.010869e+04
  1.203434e+00    1.079975e+04
  1.256552e+00    1.169999e+04
  1.309671e+00    1.281842e+04
  1.362789e+00    1.388696e+04
  1.415907e+00    1.436910e+04
  1.469025e+00    1.445551e+04
  1.522143e+00    1.429837e+04
  1.575261e+00    1.371738e+04
  1.628380e+00    1.296629e+04
  1.681498e+00    1.203760e+04
  1.734616e+00    1.107938e+04
  1.787734e+00    1.025152e+04
  1.840852e+00    9.548381e+03
  1.893970e+00    8.986045e+03
  1.947089e+00    8.643075e+03
  2.000207e+00    8.355002e+03
  2.053325e+00    8.193987e+03
  2.106443e+00    8.495673e+03
  2.159561e+00    9.206075e+03
  2.212679e+00    9.488884e+03
  2.265797e+00    9.317782e+03
  2.318916e+00    8.691530e+03
  2.372034e+00    7.989420e+03
  2.425152e+00    8.256548e+03
  2.478270e+00    9.535451e+03
  2.531388e+00    1.204491e+04
  2.584506e+00    1.307359e+04
  2.637625e+00    1.084026e+04
  2.690743e+00    8.817427e+03
  2.743861e+00    7.871676e+03
  2.796979e+00    6.545519e+03
  2.850097e+00    5.629645e+03
  2.903215e+00    5.313196e+03
  2.956334e+00    5.257240e+03
  3.009452e+00    5.594179e+03
  3.062570e+00    6.932934e+03
  3.115688e+00    9.245491e+03
  3.168806e+00    9.231157e+03
  3.221924e+00    7.453271e+03
  3.275043e+00    5.896590e+03
  3.328161e+00    5.030457e+03
  3.381279e+00    4.813885e+03
  3.434397e+00    4.801472e+03
  3.487515e+00    4.837970e+03
  3.540633e+00    4.744699e+03
  3.593751e+00    4.649545e+03
  3.646870e+00    4.700798e+03
  3.699988e+00    4.847519e+03
  3.753106e+00    5.075681e+03
  3.806224e+00    5.285979e+03
  3.859342e+00    5.412565e+03
  3.912460e+00    5.670820e+03
  3.965579e+00    6.291814e+03
  4.018697e+00    7.031887e+03
  4.071815e+00    7.277311e+03
  4.124933e+00    6.910702e+03
  4.178051e+00    6.489089e+03
  4.231169e+00    6.315504e+03
  4.284288e+00    6.651117e+03
  4.337406e+00    7.965120e+03
  4.390524e+00    9.956957e+03
  4.443642e+00    1.201158e+04
  4.496760e+00    1.246807e+04
  4.549878e+00    8.781904e+03
  4.602997e+00    6.011324e+03
  4.656115e+00    5.345437e+03
  4.709233e+00    5.138350e+03
  4.762351e+00    5.087757e+03
  4.815469e+00    5.111082e+03
  4.868587e+00    5.192220e+03
  4.921705e+00    5.263852e+03
  4.974824e+00    5.362207e+03
  5.027942e+00    5.458376e+03
  5.081060e+00    5.592260e+03
  5.134178e+00    5.476862e+03
  5.187296e+00    5.132247e+03
  5.240414e+00    4.762389e+03
  5.293533e+00    4.529212e+03
  5.346651e+00    4.415628e+03
  5.399769e+00    4.342466e+03
  5.452887e+00    4.324637e+03
  5.506005e+00    4.212617e+03
  5.559123e+00    3.853836e+03
  5.612242e+00    3.660730e+03
  5.665360e+00    3.606066e+03
  5.718478e+00    3.569288e+03
  5.771596e+00    3.584084e+03
  5.824714e+00    3.670107e+03
  5.877832e+00    3.822742e+03
  5.930951e+00    4.018788e+03
  5.984069e+00    4.106969e+03
  6.037187e+00    4.000880e+03
  6.090305e+00    3.831801e+03
  6.143423e+00    3.754804e+03
  6.196541e+00    3.872878e+03
  6.249660e+00    4.030827e+03
  6.302778e+00    3.936193e+03
  6.355896e+00    3.662136e+03
  6.409014e+00    3.554361e+03
  6.462132e+00    3.485145e+03
  6.515250e+00    3.433849e+03
  6.568368e+00    3.448750e+03
  6.621487e+00    3.505799e+03
  6.674605e+00    3.584686e+03
  6.727723e+00    3.637374e+03
  6.780841e+00    3.553755e+03
  6.833959e+00    3.395809e+03
  6.887077e+00    3.290327e+03
  6.940196e+00    3.246030e+03
  6.993314e+00    3.282683e+03
  7.046432e+00    3.289397e+03
  7.099550e+00    3.214428e+03
  7.152668e+00    3.145157e+03
  7.205786e+00    3.093413e+03
  7.258905e+00    3.067111e+03
  7.312023e+00    3.116311e+03
  7.365141e+00    3.198519e+03
  7.418259e+00    3.256406e+03
  7.471377e+00    3.278400e+03
  7.524495e+00    3.326677e+03
  7.577614e+00    3.436200e+03
  7.630732e+00    3.507390e+03
  7.683850e+00    3.576843e+03
  7.736968e+00    3.659354e+03
  7.790086e+00    3.555704e+03
  7.843204e+00    3.367079e+03
  7.896322e+00    3.216355e+03
  7.949441e+00    3.159676e+03
  8.002559e+00    3.157078e+03
  8.055677e+00    3.136051e+03
  8.108795e+00    3.092228e+03
  8.161913e+00    3.054824e+03
  8.215031e+00    3.000774e+03
  8.268150e+00    2.949657e+03
  8.321268e+00    2.911218e+03
  8.374386e+00    2.884777e+03
  8.427504e+00    2.866569e+03
  8.480622e+00    2.852768e+03
  8.533740e+00    2.803758e+03
  8.586859e+00    2.836720e+03
  8.639977e+00    2.831514e+03
  8.693095e+00    2.820042e+03
  8.746213e+00    2.823610e+03
  8.799331e+00    2.817811e+03
  8.852449e+00    2.802391e+03
  8.905568e+00    2.809311e+03
  8.958686e+00    2.807390e+03
  9.011804e+00    2.803205e+03
  9.064922e+00    2.749340e+03
  9.118040e+00    2.707293e+03
  9.171158e+00    2.691913e+03
  9.224276e+00    2.664534e+03
  9.277395e+00    2.620587e+03
  9.330513e+00    2.592578e+03
  9.383631e+00    2.569214e+03
  9.436749e+00    2.554648e+03
  9.489867e+00    2.562316e+03
  9.542985e+00    2.567036e+03
  9.596104e+00    2.559039e+03
  9.649222e+00    2.564944e+03
  9.702340e+00    2.563786e+03
  9.755458e+00    2.549728e+03
  9.808576e+00    2.544312e+03
  9.861694e+00    2.549150e+03
  9.914813e+00    2.539708e+03
  9.967931e+00    2.519158e+03
  1.002105e+01    2.484496e+03
  1.007417e+01    2.452870e+03
  1.012729e+01    2.433330e+03
  1.018040e+01    2.421770e+03
  1.023352e+01    2.393273e+03
  1.028664e+01    2.358870e+03
  1.033976e+01    2.345675e+03
  1.039288e+01    2.362087e+03
  1.044599e+01    2.351534e+03
  1.049911e+01    2.350784e+03
  1.055223e+01    2.336140e+03
  1.060535e+01    2.338666e+03
  1.065847e+01    2.327459e+03
  1.071158e+01    2.321020e+03
  1.076470e+01    2.312301e+03
  1.081782e+01    2.311052e+03
  1.087094e+01    2.299136e+03
  1.092406e+01    2.310947e+03
  1.097718e+01    2.312844e+03
  1.103029e+01    2.311958e+03
  1.108341e+01    2.303409e+03
  1.113653e+01    2.290738e+03
  1.118965e+01    2.270356e+03
  1.124277e+01    2.256451e+03
  1.129588e+01    2.249056e+03
  1.134900e+01    2.241147e+03
  1.140212e+01    2.246543e+03
  1.145524e+01    2.247650e+03
  1.150836e+01    2.254263e+03
  1.156148e+01    2.252798e+03
  1.161459e+01    2.255947e+03
  1.166771e+01    2.244789e+03
  1.172083e+01    2.247826e+03
  1.177395e+01    2.228529e+03
  1.182707e+01    2.217687e+03
  1.188018e+01    2.216977e+03
  1.193330e+01    2.202676e+03
  1.198642e+01    2.185677e+03
  1.203954e+01    2.164508e+03
  1.209266e+01    2.159095e+03
  1.214578e+01    2.150326e+03
  1.219889e+01    2.153027e+03
  1.225201e+01    2.154283e+03
  1.230513e+01    2.148364e+03
  1.235825e+01    2.149720e+03
  1.241137e+01    2.135143e+03
  1.246448e+01    2.131116e+03
  1.251760e+01    2.126606e+03
  1.257072e+01    2.120675e+03
  1.262384e+01    2.125750e+03
  1.267696e+01    2.113389e+03
  1.273008e+01    2.098794e+03
  1.278319e+01    2.089961e+03
  1.283631e+01    2.080405e+03
  1.288943e+01    2.073708e+03
  1.294255e+01    2.061130e+03
  1.299567e+01    2.055910e+03
  1.304878e+01    2.051337e+03
  1.310190e+01    2.047839e+03
  1.315502e+01    2.043927e+03
  1.320814e+01    2.021138e+03
  1.326126e+01    1.999124e+03
  1.331437e+01    1.987303e+03
  1.336749e+01    1.979714e+03
  1.342061e+01    1.970309e+03
  1.347373e+01    1.995464e+03
  1.352685e+01    1.994949e+03
  1.357997e+01    1.980681e+03
  1.363308e+01    1.969732e+03
  1.368620e+01    1.961857e+03
  1.373932e+01    1.955023e+03
  1.379244e+01    1.949776e+03
  1.384556e+01    1.942634e+03
  1.389867e+01    1.932655e+03
  1.395179e+01    1.924005e+03
  1.400491e+01    1.922211e+03
  1.405803e+01    1.918589e+03
  1.411115e+01    1.911077e+03
  1.416427e+01    1.900445e+03
  1.421738e+01    1.898762e+03
  1.427050e+01    1.888588e+03
  1.432362e+01    1.889947e+03
  1.437674e+01    1.887418e+03
  1.442986e+01    1.875676e+03
  1.448297e+01    1.869357e+03
  1.453609e+01    1.862352e+03
  1.458921e+01    1.852929e+03
  1.464233e+01    1.848957e+03
  1.469545e+01    1.839753e+03
  1.474857e+01    1.822523e+03
  1.480168e+01    1.833606e+03
  1.485480e+01    1.829648e+03
  1.490792e+01    1.825520e+03
  1.496104e+01    1.817519e+03
  1.501416e+01    1.814753e+03
  1.506727e+01    1.811373e+03
  1.512039e+01    1.808155e+03
  1.517351e+01    1.820213e+03
  1.522663e+01    1.835207e+03
  1.527975e+01    1.830985e+03
  1.533286e+01    1.814540e+03
  1.538598e+01    1.806985e+03
  1.543910e+01    1.798061e+03
  1.549222e+01    1.794775e+03
  1.554534e+01    1.793714e+03
  1.559846e+01    1.791127e+03
  1.565157e+01    1.783222e+03
  1.570469e+01    1.779507e+03
  1.575781e+01    1.776756e+03
  1.581093e+01    1.772783e+03
  1.586405e+01    1.769696e+03
  1.591716e+01    1.764542e+03
  1.597028e+01    1.759284e+03
  1.602340e+01    1.744929e+03
  1.607652e+01    1.732261e+03
  1.612964e+01    1.708854e+03
  1.618276e+01    1.696593e+03
  1.623587e+01    1.698771e+03
  1.628899e+01    1.714689e+03
  1.634211e+01    1.712699e+03
  1.639523e+01    1.707185e+03
  1.644835e+01    1.709550e+03
  1.650146e+01    1.701933e+03
  1.655458e+01    1.701576e+03
  1.660770e+01    1.696209e+03
  1.666082e+01    1.693314e+03
  1.671394e+01    1.690933e+03
  1.676706e+01    1.687461e+03
  1.682017e+01    1.699689e+03
  1.687329e+01    1.687663e+03
  1.692641e+01    1.683186e+03
  1.697953e+01    1.678533e+03
  1.703265e+01    1.674631e+03
  1.708576e+01    1.672775e+03
  1.713888e+01    1.664318e+03
  1.719200e+01    1.662856e+03
  1.724512e+01    1.656549e+03
  1.729824e+01    1.655803e+03
  1.735136e+01    1.649896e+03
  1.740447e+01    1.627779e+03
  1.745759e+01    1.636448e+03
  1.751071e+01    1.637243e+03
  1.756383e+01    1.647492e+03
  1.761695e+01    1.631949e+03
  1.767006e+01    1.628827e+03
  1.772318e+01    1.620648e+03
  1.777630e+01    1.619729e+03
  1.782942e+01    1.609778e+03
  1.788254e+01    1.606505e+03
  1.793565e+01    1.604139e+03
  1.798877e+01    1.601237e+03
  1.804189e+01    1.594422e+03
  1.809501e+01    1.590768e+03
  1.814813e+01    1.587866e+03
  1.820125e+01    1.582309e+03
  1.825436e+01    1.588042e+03
  1.830748e+01    1.581216e+03
  1.836060e+01    1.576624e+03
  1.841372e+01    1.574264e+03
  1.846684e+01    1.569974e+03
  1.851995e+01    1.548497e+03
  1.857307e+01    1.535251e+03
  1.862619e+01    1.525161e+03
  1.867931e+01    1.521842e+03
  1.873243e+01    1.541880e+03
  1.878555e+01    1.544442e+03
  1.883866e+01    1.541952e+03
  1.889178e+01    1.540304e+03
  1.894490e+01    1.552886e+03
  1.899802e+01    1.543535e+03
  1.905114e+01    1.538673e+03
  1.910425e+01    1.532783e+03
  1.915737e+01    1.529847e+03
  1.921049e+01    1.525541e+03
  1.926361e+01    1.521957e+03
  1.931673e+01    1.518523e+03
  1.936985e+01    1.515826e+03
  1.942296e+01    1.515795e+03
  1.947608e+01    1.517461e+03
  1.952920e+01    1.521055e+03
  1.958232e+01    1.510033e+03
  1.963544e+01    1.514687e+03
  1.968855e+01    1.500491e+03
  1.974167e+01    1.489299e+03
  1.979479e+01    1.494391e+03
  1.984791e+01    1.492545e+03
  1.990103e+01    1.490027e+03
  1.995414e+01    1.488779e+03
  2.000726e+01    1.486124e+03
  2.006038e+01    1.481530e+03
  2.011350e+01    1.477733e+03
  2.016662e+01    1.471234e+03
  2.021974e+01    1.474931e+03
  2.027285e+01    1.481733e+03
  2.032597e+01    1.466288e+03
  2.037909e+01    1.461133e+03
  2.043221e+01    1.456315e+03
  2.048533e+01    1.454794e+03
  2.053844e+01    1.453685e+03
  2.059156e+01    1.447901e+03
  2.064468e+01    1.444884e+03
  2.069780e+01    1.426370e+03
  2.075092e+01    1.401630e+03
  2.080404e+01    1.388190e+03
  2.085715e+01    1.407844e+03
  2.091027e+01    1.433539e+03
  2.096339e+01    1.440469e+03
  2.101651e+01    1.444734e+03
  2.106963e+01    1.448543e+03
  2.112274e+01    1.452471e+03
  2.117586e+01    1.453844e+03
  2.122898e+01    1.456081e+03
  2.128210e+01    1.452993e+03
  2.133522e+01    1.453811e+03
  2.138834e+01    1.452139e+03
  2.144145e+01    1.451073e+03
  2.149457e+01    1.451552e+03
  2.154769e+01    1.451333e+03
  2.160081e+01    1.449911e+03
  2.165393e+01    1.452406e+03
  2.170704e+01    1.451792e+03
  2.176016e+01    1.440741e+03
  2.181328e+01    1.450356e+03
  2.186640e+01    1.451093e+03
  2.191952e+01    1.448522e+03
  2.197263e+01    1.446058e+03
  2.202575e+01    1.444677e+03
  2.207887e+01    1.445326e+03
  2.213199e+01    1.443275e+03
  2.218511e+01    1.442474e+03
  2.223823e+01    1.441252e+03
  2.229134e+01    1.440265e+03
  2.234446e+01    1.438527e+03
  2.239758e+01    1.439582e+03
  2.245070e+01    1.435976e+03
  2.250382e+01    1.437201e+03
  2.255693e+01    1.434218e+03
  2.261005e+01    1.415878e+03
  2.266317e+01    1.402875e+03
  2.271629e+01    1.395052e+03
  2.276941e+01    1.386378e+03
  2.282253e+01    1.378771e+03
  2.287564e+01    1.374539e+03
  2.292876e+01    1.368593e+03
  2.298188e+01    1.367705e+03
  2.303500e+01    1.363881e+03
  2.308812e+01    1.362180e+03
  2.314123e+01    1.360502e+03
  2.319435e+01    1.354700e+03
  2.324747e+01    1.347796e+03
  2.330059e+01    1.343850e+03
  2.335371e+01    1.341548e+03
  2.340683e+01    1.338038e+03
  2.345994e+01    1.334005e+03
  2.351306e+01    1.331178e+03
  2.356618e+01    1.326443e+03
  2.361930e+01    1.323139e+03
  2.367242e+01    1.317810e+03
  2.372553e+01    1.310683e+03
  2.377865e+01    1.304887e+03
  2.383177e+01    1.300387e+03
  2.388489e+01    1.295857e+03
  2.393801e+01    1.290893e+03
  2.399113e+01    1.293283e+03
  2.404424e+01    1.289429e+03
  2.409736e+01    1.288787e+03
  2.415048e+01    1.284895e+03
  2.420360e+01    1.280727e+03
  2.425672e+01    1.277330e+03
  2.430983e+01    1.276193e+03
  2.436295e+01    1.274422e+03
  2.441607e+01    1.270492e+03
  2.446919e+01    1.269943e+03
  2.452231e+01    1.268584e+03
  2.457542e+01    1.265340e+03
  2.462854e+01    1.260361e+03
  2.468166e+01    1.261696e+03
  2.473478e+01    1.256576e+03
  2.478790e+01    1.249316e+03
  2.484102e+01    1.247900e+03
  2.489413e+01    1.240685e+03
  2.494725e+01    1.237624e+03
  2.500037e+01    1.234896e+03
  2.505349e+01    1.227721e+03
  2.510661e+01    1.222495e+03
  2.515972e+01    1.221950e+03
  2.521284e+01    1.218663e+03
  2.526596e+01    1.219334e+03
  2.531908e+01    1.218715e+03
  2.537220e+01    1.213396e+03
  2.542532e+01    1.210074e+03
  2.547843e+01    1.207189e+03
  2.553155e+01    1.206825e+03
  2.558467e+01    1.198851e+03
  2.563779e+01    1.190500e+03
  2.569091e+01    1.185673e+03
  2.574402e+01    1.173650e+03
  2.579714e+01    1.169809e+03
  2.585026e+01    1.160860e+03
  2.590338e+01    1.153591e+03
  2.595650e+01    1.150181e+03
  2.600962e+01    1.151465e+03
  2.606273e+01    1.150535e+03
  2.611585e+01    1.150971e+03
  2.616897e+01    1.150822e+03
  2.622209e+01    1.144776e+03
  2.627521e+01    1.144638e+03
  2.632832e+01    1.138005e+03
  2.638144e+01    1.135061e+03
  2.643456e+01    1.130768e+03
  2.648768e+01    1.110692e+03
  2.654080e+01    1.107845e+03
