# == pyFAI calibration ==
# Distance Sample to Detector: 0.2946421923531691 m
# PONI: 2.875e-01, 2.439e-01 m
# Rotations: -0.010990 -0.009181 0.000003 rad
# 
# == Fit2d calibration ==
# Distance Sample-beamCenter: 294.672 mm
# Center: x=1436.809, y=1655.851 pix
# Tilt: 0.820 deg  TiltPlanRot: -39.874 deg
# 
# Detector Pilatus 2M	 PixelSize= 1.720e-04, 1.720e-04 m
#    Detector has a mask: True 
#    Detector has a dark current: False 
#    detector has a flat field: False 
# 
# Wavelength: 2.0732883349524408e-11 m
# Mask applied: from detector
# Dark current applied: False
# Flat field applied: False
# Polarization factor: None
# Normalization factor: 1.0
# --> /gpfs/current/raw/FMue_3/FMue_3_20231024_175355_00108.dat
#        q_A^-1             I 
  3.483473e-02             nan
  8.795289e-02             nan
  1.410711e-01             nan
  1.941892e-01             nan
  2.473074e-01             nan
  3.004255e-01             nan
  3.535437e-01             nan
  4.066619e-01    1.338043e+04
  4.597800e-01    1.218239e+04
  5.128982e-01    1.029639e+04
  5.660163e-01    9.245213e+03
  6.191345e-01    8.782329e+03
  6.722527e-01    8.566042e+03
  7.253708e-01    8.542609e+03
  7.784890e-01    8.558689e+03
  8.316071e-01    8.720051e+03
  8.847253e-01    8.897074e+03
  9.378435e-01    9.343780e+03
  9.909616e-01    1.002869e+04
  1.044080e+00    1.012534e+04
  1.097198e+00    9.949638e+03
  1.150316e+00    1.035028e+04
  1.203434e+00    1.103793e+04
  1.256552e+00    1.190046e+04
  1.309671e+00    1.295624e+04
  1.362789e+00    1.401851e+04
  1.415907e+00    1.454686e+04
  1.469025e+00    1.462457e+04
  1.522143e+00    1.444233e+04
  1.575261e+00    1.382452e+04
  1.628380e+00    1.307722e+04
  1.681498e+00    1.214928e+04
  1.734616e+00    1.118794e+04
  1.787734e+00    1.034874e+04
  1.840852e+00    9.657342e+03
  1.893970e+00    9.165915e+03
  1.947089e+00    9.086962e+03
  2.000207e+00    8.823456e+03
  2.053325e+00    8.339705e+03
  2.106443e+00    8.409986e+03
  2.159561e+00    8.880221e+03
  2.212679e+00    9.149404e+03
  2.265797e+00    9.210392e+03
  2.318916e+00    8.766023e+03
  2.372034e+00    8.089780e+03
  2.425152e+00    8.313688e+03
  2.478270e+00    9.314148e+03
  2.531388e+00    1.115566e+04
  2.584506e+00    1.214902e+04
  2.637625e+00    1.097057e+04
  2.690743e+00    9.318703e+03
  2.743861e+00    8.156881e+03
  2.796979e+00    6.713255e+03
  2.850097e+00    5.725397e+03
  2.903215e+00    5.390902e+03
  2.956334e+00    5.329844e+03
  3.009452e+00    5.616341e+03
  3.062570e+00    6.791180e+03
  3.115688e+00    9.123014e+03
  3.168806e+00    9.422150e+03
  3.221924e+00    7.666417e+03
  3.275043e+00    6.108896e+03
  3.328161e+00    5.432953e+03
  3.381279e+00    5.449922e+03
  3.434397e+00    5.194349e+03
  3.487515e+00    4.959477e+03
  3.540633e+00    4.876782e+03
  3.593751e+00    4.738122e+03
  3.646870e+00    4.742917e+03
  3.699988e+00    4.895791e+03
  3.753106e+00    5.121344e+03
  3.806224e+00    5.285686e+03
  3.859342e+00    5.406343e+03
  3.912460e+00    5.650640e+03
  3.965579e+00    6.093354e+03
  4.018697e+00    6.682316e+03
  4.071815e+00    7.087774e+03
  4.124933e+00    6.950930e+03
  4.178051e+00    6.596453e+03
  4.231169e+00    6.413103e+03
  4.284288e+00    6.747427e+03
  4.337406e+00    7.883127e+03
  4.390524e+00    9.484346e+03
  4.443642e+00    1.178085e+04
  4.496760e+00    1.280527e+04
  4.549878e+00    9.141947e+03
  4.602997e+00    6.117796e+03
  4.656115e+00    5.394193e+03
  4.709233e+00    5.248285e+03
  4.762351e+00    5.328958e+03
  4.815469e+00    5.285591e+03
  4.868587e+00    5.208505e+03
  4.921705e+00    5.241538e+03
  4.974824e+00    5.334056e+03
  5.027942e+00    5.395596e+03
  5.081060e+00    5.492039e+03
  5.134178e+00    5.429419e+03
  5.187296e+00    5.192567e+03
  5.240414e+00    4.870878e+03
  5.293533e+00    4.648019e+03
  5.346651e+00    4.508593e+03
  5.399769e+00    4.412079e+03
  5.452887e+00    4.398792e+03
  5.506005e+00    4.345537e+03
  5.559123e+00    3.994276e+03
  5.612242e+00    3.734829e+03
  5.665360e+00    3.652816e+03
  5.718478e+00    3.576358e+03
  5.771596e+00    3.556522e+03
  5.824714e+00    3.623168e+03
  5.877832e+00    3.750693e+03
  5.930951e+00    3.919481e+03
  5.984069e+00    4.035751e+03
  6.037187e+00    4.011703e+03
  6.090305e+00    3.895571e+03
  6.143423e+00    3.779404e+03
  6.196541e+00    3.844734e+03
  6.249660e+00    4.023608e+03
  6.302778e+00    3.987723e+03
  6.355896e+00    3.715505e+03
  6.409014e+00    3.579605e+03
  6.462132e+00    3.503347e+03
  6.515250e+00    3.446679e+03
  6.568368e+00    3.457647e+03
  6.621487e+00    3.492082e+03
  6.674605e+00    3.542738e+03
  6.727723e+00    3.607172e+03
  6.780841e+00    3.585298e+03
  6.833959e+00    3.483295e+03
  6.887077e+00    3.378819e+03
  6.940196e+00    3.309725e+03
  6.993314e+00    3.340584e+03
  7.046432e+00    3.357010e+03
  7.099550e+00    3.270696e+03
  7.152668e+00    3.192936e+03
  7.205786e+00    3.140527e+03
  7.258905e+00    3.103345e+03
  7.312023e+00    3.128604e+03
  7.365141e+00    3.184116e+03
  7.418259e+00    3.241507e+03
  7.471377e+00    3.287390e+03
  7.524495e+00    3.347918e+03
  7.577614e+00    3.431437e+03
  7.630732e+00    3.501709e+03
  7.683850e+00    3.604619e+03
  7.736968e+00    3.731038e+03
  7.790086e+00    3.651566e+03
  7.843204e+00    3.432013e+03
  7.896322e+00    3.240779e+03
  7.949441e+00    3.158770e+03
  8.002559e+00    3.137635e+03
  8.055677e+00    3.138191e+03
  8.108795e+00    3.123021e+03
  8.161913e+00    3.097879e+03
  8.215031e+00    3.036304e+03
  8.268150e+00    2.972887e+03
  8.321268e+00    2.926278e+03
  8.374386e+00    2.903862e+03
  8.427504e+00    2.887512e+03
  8.480622e+00    2.865928e+03
  8.533740e+00    2.809999e+03
  8.586859e+00    2.842908e+03
  8.639977e+00    2.843348e+03
  8.693095e+00    2.831572e+03
  8.746213e+00    2.835112e+03
  8.799331e+00    2.824323e+03
  8.852449e+00    2.819048e+03
  8.905568e+00    2.832388e+03
  8.958686e+00    2.836555e+03
  9.011804e+00    2.838180e+03
  9.064922e+00    2.775342e+03
  9.118040e+00    2.715479e+03
  9.171158e+00    2.696202e+03
  9.224276e+00    2.679263e+03
  9.277395e+00    2.644296e+03
  9.330513e+00    2.622538e+03
  9.383631e+00    2.606891e+03
  9.436749e+00    2.592115e+03
  9.489867e+00    2.596432e+03
  9.542985e+00    2.590877e+03
  9.596104e+00    2.574593e+03
  9.649222e+00    2.574771e+03
  9.702340e+00    2.572973e+03
  9.755458e+00    2.569831e+03
  9.808576e+00    2.561243e+03
  9.861694e+00    2.565480e+03
  9.914813e+00    2.566283e+03
  9.967931e+00    2.548691e+03
  1.002105e+01    2.507568e+03
  1.007417e+01    2.465920e+03
  1.012729e+01    2.443244e+03
  1.018040e+01    2.440770e+03
  1.023352e+01    2.422920e+03
  1.028664e+01    2.392494e+03
  1.033976e+01    2.371881e+03
  1.039288e+01    2.387596e+03
  1.044599e+01    2.373470e+03
  1.049911e+01    2.370102e+03
  1.055223e+01    2.353672e+03
  1.060535e+01    2.354433e+03
  1.065847e+01    2.347620e+03
  1.071158e+01    2.339424e+03
  1.076470e+01    2.333104e+03
  1.081782e+01    2.331182e+03
  1.087094e+01    2.318040e+03
  1.092406e+01    2.323330e+03
  1.097718e+01    2.327766e+03
  1.103029e+01    2.325472e+03
  1.108341e+01    2.323941e+03
  1.113653e+01    2.313852e+03
  1.118965e+01    2.296095e+03
  1.124277e+01    2.282780e+03
  1.129588e+01    2.275697e+03
  1.134900e+01    2.262227e+03
  1.140212e+01    2.262839e+03
  1.145524e+01    2.259946e+03
  1.150836e+01    2.265996e+03
  1.156148e+01    2.263320e+03
  1.161459e+01    2.269938e+03
  1.166771e+01    2.261623e+03
  1.172083e+01    2.272603e+03
  1.177395e+01    2.253172e+03
  1.182707e+01    2.242690e+03
  1.188018e+01    2.241365e+03
  1.193330e+01    2.224365e+03
  1.198642e+01    2.206198e+03
  1.203954e+01    2.183603e+03
  1.209266e+01    2.175233e+03
  1.214578e+01    2.163495e+03
  1.219889e+01    2.167129e+03
  1.225201e+01    2.167404e+03
  1.230513e+01    2.162833e+03
  1.235825e+01    2.165542e+03
  1.241137e+01    2.153686e+03
  1.246448e+01    2.149883e+03
  1.251760e+01    2.144755e+03
  1.257072e+01    2.138394e+03
  1.262384e+01    2.143764e+03
  1.267696e+01    2.129150e+03
  1.273008e+01    2.114513e+03
  1.278319e+01    2.106981e+03
  1.283631e+01    2.096944e+03
  1.288943e+01    2.091054e+03
  1.294255e+01    2.079178e+03
  1.299567e+01    2.074288e+03
  1.304878e+01    2.068615e+03
  1.310190e+01    2.065066e+03
  1.315502e+01    2.061890e+03
  1.320814e+01    2.039679e+03
  1.326126e+01    2.015710e+03
  1.331437e+01    2.005254e+03
  1.336749e+01    1.998400e+03
  1.342061e+01    1.986221e+03
  1.347373e+01    2.013349e+03
  1.352685e+01    2.016183e+03
  1.357997e+01    2.002811e+03
  1.363308e+01    1.989859e+03
  1.368620e+01    1.980245e+03
  1.373932e+01    1.973994e+03
  1.379244e+01    1.966520e+03
  1.384556e+01    1.960660e+03
  1.389867e+01    1.961045e+03
  1.395179e+01    1.944104e+03
  1.400491e+01    1.940329e+03
  1.405803e+01    1.937243e+03
  1.411115e+01    1.927680e+03
  1.416427e+01    1.918961e+03
  1.421738e+01    1.916789e+03
  1.427050e+01    1.908043e+03
  1.432362e+01    1.907952e+03
  1.437674e+01    1.905143e+03
  1.442986e+01    1.892985e+03
  1.448297e+01    1.886093e+03
  1.453609e+01    1.878358e+03
  1.458921e+01    1.870321e+03
  1.464233e+01    1.865687e+03
  1.469545e+01    1.857238e+03
  1.474857e+01    1.837983e+03
  1.480168e+01    1.848830e+03
  1.485480e+01    1.847076e+03
  1.490792e+01    1.841555e+03
  1.496104e+01    1.834039e+03
  1.501416e+01    1.832626e+03
  1.506727e+01    1.826977e+03
  1.512039e+01    1.823777e+03
  1.517351e+01    1.836500e+03
  1.522663e+01    1.850863e+03
  1.527975e+01    1.847578e+03
  1.533286e+01    1.831656e+03
  1.538598e+01    1.822784e+03
  1.543910e+01    1.812958e+03
  1.549222e+01    1.810897e+03
  1.554534e+01    1.811434e+03
  1.559846e+01    1.808704e+03
  1.565157e+01    1.801040e+03
  1.570469e+01    1.795085e+03
  1.575781e+01    1.792108e+03
  1.581093e+01    1.788777e+03
  1.586405e+01    1.787061e+03
  1.591716e+01    1.780753e+03
  1.597028e+01    1.774927e+03
  1.602340e+01    1.759254e+03
  1.607652e+01    1.749165e+03
  1.612964e+01    1.724244e+03
  1.618276e+01    1.713136e+03
  1.623587e+01    1.714199e+03
  1.628899e+01    1.730578e+03
  1.634211e+01    1.728748e+03
  1.639523e+01    1.722364e+03
  1.644835e+01    1.722442e+03
  1.650146e+01    1.717874e+03
  1.655458e+01    1.715957e+03
  1.660770e+01    1.711507e+03
  1.666082e+01    1.707454e+03
  1.671394e+01    1.707772e+03
  1.676706e+01    1.701911e+03
  1.682017e+01    1.717017e+03
  1.687329e+01    1.704632e+03
  1.692641e+01    1.699207e+03
  1.697953e+01    1.694987e+03
  1.703265e+01    1.689635e+03
  1.708576e+01    1.688806e+03
  1.713888e+01    1.680498e+03
  1.719200e+01    1.679662e+03
  1.724512e+01    1.673061e+03
  1.729824e+01    1.672797e+03
  1.735136e+01    1.666949e+03
  1.740447e+01    1.643496e+03
  1.745759e+01    1.652223e+03
  1.751071e+01    1.651476e+03
  1.756383e+01    1.662141e+03
  1.761695e+01    1.647072e+03
  1.767006e+01    1.644386e+03
  1.772318e+01    1.633864e+03
  1.777630e+01    1.633996e+03
  1.782942e+01    1.626047e+03
  1.788254e+01    1.621637e+03
  1.793565e+01    1.618632e+03
  1.798877e+01    1.616185e+03
  1.804189e+01    1.610521e+03
  1.809501e+01    1.605638e+03
  1.814813e+01    1.601334e+03
  1.820125e+01    1.596553e+03
  1.825436e+01    1.603107e+03
  1.830748e+01    1.596870e+03
  1.836060e+01    1.591975e+03
  1.841372e+01    1.588695e+03
  1.846684e+01    1.582903e+03
  1.851995e+01    1.564841e+03
  1.857307e+01    1.549385e+03
  1.862619e+01    1.539786e+03
  1.867931e+01    1.537241e+03
  1.873243e+01    1.553979e+03
  1.878555e+01    1.557156e+03
  1.883866e+01    1.556403e+03
  1.889178e+01    1.555707e+03
  1.894490e+01    1.567286e+03
  1.899802e+01    1.557179e+03
  1.905114e+01    1.551930e+03
  1.910425e+01    1.548207e+03
  1.915737e+01    1.542965e+03
  1.921049e+01    1.539189e+03
  1.926361e+01    1.535804e+03
  1.931673e+01    1.533141e+03
  1.936985e+01    1.531404e+03
  1.942296e+01    1.528685e+03
  1.947608e+01    1.528688e+03
  1.952920e+01    1.523031e+03
  1.958232e+01    1.524948e+03
  1.963544e+01    1.531394e+03
  1.968855e+01    1.515324e+03
  1.974167e+01    1.504643e+03
  1.979479e+01    1.509661e+03
  1.984791e+01    1.506229e+03
  1.990103e+01    1.505402e+03
  1.995414e+01    1.503103e+03
  2.000726e+01    1.500452e+03
  2.006038e+01    1.496545e+03
  2.011350e+01    1.493901e+03
  2.016662e+01    1.486438e+03
  2.021974e+01    1.490009e+03
  2.027285e+01    1.497232e+03
  2.032597e+01    1.480956e+03
  2.037909e+01    1.476794e+03
  2.043221e+01    1.472636e+03
  2.048533e+01    1.469674e+03
  2.053844e+01    1.469319e+03
  2.059156e+01    1.463004e+03
  2.064468e+01    1.460270e+03
  2.069780e+01    1.441790e+03
  2.075092e+01    1.417283e+03
  2.080404e+01    1.402151e+03
  2.085715e+01    1.421175e+03
  2.091027e+01    1.447918e+03
  2.096339e+01    1.456502e+03
  2.101651e+01    1.460552e+03
  2.106963e+01    1.463750e+03
  2.112274e+01    1.467736e+03
  2.117586e+01    1.485050e+03
  2.122898e+01    1.478813e+03
  2.128210e+01    1.467688e+03
  2.133522e+01    1.468879e+03
  2.138834e+01    1.467972e+03
  2.144145e+01    1.466879e+03
  2.149457e+01    1.466896e+03
  2.154769e+01    1.466640e+03
  2.160081e+01    1.466118e+03
  2.165393e+01    1.467033e+03
  2.170704e+01    1.467070e+03
  2.176016e+01    1.456542e+03
  2.181328e+01    1.464421e+03
  2.186640e+01    1.466144e+03
  2.191952e+01    1.464689e+03
  2.197263e+01    1.462869e+03
  2.202575e+01    1.459420e+03
  2.207887e+01    1.460807e+03
  2.213199e+01    1.458762e+03
  2.218511e+01    1.458790e+03
  2.223823e+01    1.455939e+03
  2.229134e+01    1.454523e+03
  2.234446e+01    1.453839e+03
  2.239758e+01    1.453657e+03
  2.245070e+01    1.450904e+03
  2.250382e+01    1.452766e+03
  2.255693e+01    1.448622e+03
  2.261005e+01    1.430124e+03
  2.266317e+01    1.417575e+03
  2.271629e+01    1.410631e+03
  2.276941e+01    1.400063e+03
  2.282253e+01    1.392307e+03
  2.287564e+01    1.388452e+03
  2.292876e+01    1.382718e+03
  2.298188e+01    1.380145e+03
  2.303500e+01    1.379332e+03
  2.308812e+01    1.376442e+03
  2.314123e+01    1.373808e+03
  2.319435e+01    1.369899e+03
  2.324747e+01    1.363574e+03
  2.330059e+01    1.359030e+03
  2.335371e+01    1.356844e+03
  2.340683e+01    1.350839e+03
  2.345994e+01    1.349157e+03
  2.351306e+01    1.346083e+03
  2.356618e+01    1.342403e+03
  2.361930e+01    1.335683e+03
  2.367242e+01    1.329836e+03
  2.372553e+01    1.324320e+03
  2.377865e+01    1.319826e+03
  2.383177e+01    1.315436e+03
  2.388489e+01    1.310388e+03
  2.393801e+01    1.306458e+03
  2.399113e+01    1.304331e+03
  2.404424e+01    1.303243e+03
  2.409736e+01    1.300692e+03
  2.415048e+01    1.296858e+03
  2.420360e+01    1.294266e+03
  2.425672e+01    1.289728e+03
  2.430983e+01    1.286116e+03
  2.436295e+01    1.286200e+03
  2.441607e+01    1.283903e+03
  2.446919e+01    1.283697e+03
  2.452231e+01    1.282357e+03
  2.457542e+01    1.278164e+03
  2.462854e+01    1.277444e+03
  2.468166e+01    1.273069e+03
  2.473478e+01    1.271336e+03
  2.478790e+01    1.262019e+03
  2.484102e+01    1.262005e+03
  2.489413e+01    1.255429e+03
  2.494725e+01    1.251843e+03
  2.500037e+01    1.246478e+03
  2.505349e+01    1.240297e+03
  2.510661e+01    1.237033e+03
  2.515972e+01    1.233563e+03
  2.521284e+01    1.234264e+03
  2.526596e+01    1.232593e+03
  2.531908e+01    1.226443e+03
  2.537220e+01    1.224992e+03
  2.542532e+01    1.223493e+03
  2.547843e+01    1.220895e+03
  2.553155e+01    1.216607e+03
  2.558467e+01    1.210871e+03
  2.563779e+01    1.200405e+03
  2.569091e+01    1.197722e+03
  2.574402e+01    1.187035e+03
  2.579714e+01    1.184023e+03
  2.585026e+01    1.173024e+03
  2.590338e+01    1.165943e+03
  2.595650e+01    1.162050e+03
  2.600962e+01    1.160313e+03
  2.606273e+01    1.158016e+03
  2.611585e+01    1.164624e+03
  2.616897e+01    1.162615e+03
  2.622209e+01    1.159221e+03
  2.627521e+01    1.156646e+03
  2.632832e+01    1.148845e+03
  2.638144e+01    1.147796e+03
  2.643456e+01    1.137836e+03
  2.648768e+01    1.129004e+03
  2.654080e+01    1.113685e+03
