# == pyFAI calibration ==
# Distance Sample to Detector: 0.2946421923531691 m
# PONI: 2.875e-01, 2.439e-01 m
# Rotations: -0.010990 -0.009181 0.000003 rad
# 
# == Fit2d calibration ==
# Distance Sample-beamCenter: 294.672 mm
# Center: x=1436.809, y=1655.851 pix
# Tilt: 0.820 deg  TiltPlanRot: -39.874 deg
# 
# Detector Pilatus 2M	 PixelSize= 1.720e-04, 1.720e-04 m
#    Detector has a mask: True 
#    Detector has a dark current: False 
#    detector has a flat field: False 
# 
# Wavelength: 2.0732883349524408e-11 m
# Mask applied: from detector
# Dark current applied: False
# Flat field applied: False
# Polarization factor: None
# Normalization factor: 1.0
# --> /gpfs/current/raw/FMue_3/FMue_3_20231024_175355_00128.dat
#        q_A^-1             I 
  3.483473e-02             nan
  8.795289e-02             nan
  1.410711e-01             nan
  1.941892e-01             nan
  2.473074e-01             nan
  3.004255e-01             nan
  3.535437e-01             nan
  4.066619e-01    1.270460e+04
  4.597800e-01    1.173489e+04
  5.128982e-01    9.959919e+03
  5.660163e-01    8.984795e+03
  6.191345e-01    8.587678e+03
  6.722527e-01    8.405420e+03
  7.253708e-01    8.416631e+03
  7.784890e-01    8.461798e+03
  8.316071e-01    8.621920e+03
  8.847253e-01    8.797739e+03
  9.378435e-01    9.175282e+03
  9.909616e-01    9.664723e+03
  1.044080e+00    9.792668e+03
  1.097198e+00    9.797385e+03
  1.150316e+00    1.023666e+04
  1.203434e+00    1.090612e+04
  1.256552e+00    1.178943e+04
  1.309671e+00    1.289456e+04
  1.362789e+00    1.397212e+04
  1.415907e+00    1.447130e+04
  1.469025e+00    1.455684e+04
  1.522143e+00    1.437480e+04
  1.575261e+00    1.377740e+04
  1.628380e+00    1.303447e+04
  1.681498e+00    1.209695e+04
  1.734616e+00    1.113446e+04
  1.787734e+00    1.030921e+04
  1.840852e+00    9.611753e+03
  1.893970e+00    9.106471e+03
  1.947089e+00    8.940879e+03
  2.000207e+00    8.677240e+03
  2.053325e+00    8.286191e+03
  2.106443e+00    8.460261e+03
  2.159561e+00    9.029809e+03
  2.212679e+00    9.311642e+03
  2.265797e+00    9.256191e+03
  2.318916e+00    8.718225e+03
  2.372034e+00    8.018709e+03
  2.425152e+00    8.274892e+03
  2.478270e+00    9.430636e+03
  2.531388e+00    1.161443e+04
  2.584506e+00    1.268575e+04
  2.637625e+00    1.101884e+04
  2.690743e+00    9.103930e+03
  2.743861e+00    8.008867e+03
  2.796979e+00    6.626325e+03
  2.850097e+00    5.671085e+03
  2.903215e+00    5.351271e+03
  2.956334e+00    5.288341e+03
  3.009452e+00    5.605331e+03
  3.062570e+00    6.852223e+03
  3.115688e+00    9.166987e+03
  3.168806e+00    9.314846e+03
  3.221924e+00    7.553756e+03
  3.275043e+00    6.035280e+03
  3.328161e+00    5.273723e+03
  3.381279e+00    5.153045e+03
  3.434397e+00    5.056442e+03
  3.487515e+00    4.924796e+03
  3.540633e+00    4.828762e+03
  3.593751e+00    4.707078e+03
  3.646870e+00    4.735570e+03
  3.699988e+00    4.893088e+03
  3.753106e+00    5.110672e+03
  3.806224e+00    5.293220e+03
  3.859342e+00    5.419681e+03
  3.912460e+00    5.674761e+03
  3.965579e+00    6.204822e+03
  4.018697e+00    6.875012e+03
  4.071815e+00    7.203986e+03
  4.124933e+00    6.938824e+03
  4.178051e+00    6.539156e+03
  4.231169e+00    6.367718e+03
  4.284288e+00    6.717841e+03
  4.337406e+00    7.974696e+03
  4.390524e+00    9.762211e+03
  4.443642e+00    1.191519e+04
  4.496760e+00    1.258876e+04
  4.549878e+00    8.909018e+03
  4.602997e+00    6.053329e+03
  4.656115e+00    5.377232e+03
  4.709233e+00    5.215591e+03
  4.762351e+00    5.236898e+03
  4.815469e+00    5.219665e+03
  4.868587e+00    5.211852e+03
  4.921705e+00    5.255684e+03
  4.974824e+00    5.353068e+03
  5.027942e+00    5.437941e+03
  5.081060e+00    5.554358e+03
  5.134178e+00    5.466154e+03
  5.187296e+00    5.176882e+03
  5.240414e+00    4.833566e+03
  5.293533e+00    4.605311e+03
  5.346651e+00    4.470405e+03
  5.399769e+00    4.380875e+03
  5.452887e+00    4.364499e+03
  5.506005e+00    4.289386e+03
  5.559123e+00    3.938761e+03
  5.612242e+00    3.708774e+03
  5.665360e+00    3.637447e+03
  5.718478e+00    3.576645e+03
  5.771596e+00    3.576833e+03
  5.824714e+00    3.652033e+03
  5.877832e+00    3.793918e+03
  5.930951e+00    3.980138e+03
  5.984069e+00    4.081302e+03
  6.037187e+00    4.017275e+03
  6.090305e+00    3.869422e+03
  6.143423e+00    3.769355e+03
  6.196541e+00    3.862131e+03
  6.249660e+00    4.025153e+03
  6.302778e+00    3.959460e+03
  6.355896e+00    3.685800e+03
  6.409014e+00    3.564860e+03
  6.462132e+00    3.496589e+03
  6.515250e+00    3.441172e+03
  6.568368e+00    3.458913e+03
  6.621487e+00    3.506616e+03
  6.674605e+00    3.572593e+03
  6.727723e+00    3.635813e+03
  6.780841e+00    3.582609e+03
  6.833959e+00    3.456297e+03
  6.887077e+00    3.342855e+03
  6.940196e+00    3.284028e+03
  6.993314e+00    3.315094e+03
  7.046432e+00    3.324319e+03
  7.099550e+00    3.243210e+03
  7.152668e+00    3.172852e+03
  7.205786e+00    3.117574e+03
  7.258905e+00    3.088952e+03
  7.312023e+00    3.128674e+03
  7.365141e+00    3.201887e+03
  7.418259e+00    3.261178e+03
  7.471377e+00    3.296532e+03
  7.524495e+00    3.344169e+03
  7.577614e+00    3.442688e+03
  7.630732e+00    3.519146e+03
  7.683850e+00    3.599732e+03
  7.736968e+00    3.695259e+03
  7.790086e+00    3.600431e+03
  7.843204e+00    3.394702e+03
  7.896322e+00    3.234174e+03
  7.949441e+00    3.163426e+03
  8.002559e+00    3.155518e+03
  8.055677e+00    3.146429e+03
  8.108795e+00    3.117475e+03
  8.161913e+00    3.081760e+03
  8.215031e+00    3.021227e+03
  8.268150e+00    2.963355e+03
  8.321268e+00    2.922455e+03
  8.374386e+00    2.899729e+03
  8.427504e+00    2.880883e+03
  8.480622e+00    2.863218e+03
  8.533740e+00    2.811630e+03
  8.586859e+00    2.846841e+03
  8.639977e+00    2.841186e+03
  8.693095e+00    2.834355e+03
  8.746213e+00    2.834276e+03
  8.799331e+00    2.827611e+03
  8.852449e+00    2.817770e+03
  8.905568e+00    2.826128e+03
  8.958686e+00    2.828646e+03
  9.011804e+00    2.823598e+03
  9.064922e+00    2.764714e+03
  9.118040e+00    2.716674e+03
  9.171158e+00    2.701106e+03
  9.224276e+00    2.679582e+03
  9.277395e+00    2.638513e+03
  9.330513e+00    2.611994e+03
  9.383631e+00    2.593418e+03
  9.436749e+00    2.576050e+03
  9.489867e+00    2.584957e+03
  9.542985e+00    2.582843e+03
  9.596104e+00    2.572401e+03
  9.649222e+00    2.575535e+03
  9.702340e+00    2.576107e+03
  9.755458e+00    2.564051e+03
  9.808576e+00    2.557814e+03
  9.861694e+00    2.561732e+03
  9.914813e+00    2.558076e+03
  9.967931e+00    2.537258e+03
  1.002105e+01    2.500230e+03
  1.007417e+01    2.464177e+03
  1.012729e+01    2.440547e+03
  1.018040e+01    2.434856e+03
  1.023352e+01    2.414259e+03
  1.028664e+01    2.380308e+03
  1.033976e+01    2.361686e+03
  1.039288e+01    2.377911e+03
  1.044599e+01    2.365608e+03
  1.049911e+01    2.364675e+03
  1.055223e+01    2.350532e+03
  1.060535e+01    2.350522e+03
  1.065847e+01    2.342748e+03
  1.071158e+01    2.335098e+03
  1.076470e+01    2.323991e+03
  1.081782e+01    2.324707e+03
  1.087094e+01    2.312035e+03
  1.092406e+01    2.319869e+03
  1.097718e+01    2.322337e+03
  1.103029e+01    2.324046e+03
  1.108341e+01    2.319767e+03
  1.113653e+01    2.307605e+03
  1.118965e+01    2.289593e+03
  1.124277e+01    2.273603e+03
  1.129588e+01    2.263510e+03
  1.134900e+01    2.257410e+03
  1.140212e+01    2.258112e+03
  1.145524e+01    2.256995e+03
  1.150836e+01    2.266391e+03
  1.156148e+01    2.261110e+03
  1.161459e+01    2.267582e+03
  1.166771e+01    2.259293e+03
  1.172083e+01    2.263855e+03
  1.177395e+01    2.243906e+03
  1.182707e+01    2.232436e+03
  1.188018e+01    2.231141e+03
  1.193330e+01    2.216308e+03
  1.198642e+01    2.198732e+03
  1.203954e+01    2.178552e+03
  1.209266e+01    2.169278e+03
  1.214578e+01    2.160576e+03
  1.219889e+01    2.164939e+03
  1.225201e+01    2.165428e+03
  1.230513e+01    2.160787e+03
  1.235825e+01    2.161400e+03
  1.241137e+01    2.148181e+03
  1.246448e+01    2.143662e+03
  1.251760e+01    2.138902e+03
  1.257072e+01    2.133738e+03
  1.262384e+01    2.138955e+03
  1.267696e+01    2.124854e+03
  1.273008e+01    2.111060e+03
  1.278319e+01    2.100940e+03
  1.283631e+01    2.092187e+03
  1.288943e+01    2.085831e+03
  1.294255e+01    2.074911e+03
  1.299567e+01    2.068782e+03
  1.304878e+01    2.064361e+03
  1.310190e+01    2.061240e+03
  1.315502e+01    2.058785e+03
  1.320814e+01    2.033029e+03
  1.326126e+01    2.009478e+03
  1.331437e+01    2.000493e+03
  1.336749e+01    1.994238e+03
  1.342061e+01    1.981986e+03
  1.347373e+01    2.006234e+03
  1.352685e+01    2.009393e+03
  1.357997e+01    1.996693e+03
  1.363308e+01    1.984436e+03
  1.368620e+01    1.974405e+03
  1.373932e+01    1.966041e+03
  1.379244e+01    1.960911e+03
  1.384556e+01    1.954505e+03
  1.389867e+01    1.946653e+03
  1.395179e+01    1.937425e+03
  1.400491e+01    1.935502e+03
  1.405803e+01    1.931742e+03
  1.411115e+01    1.924851e+03
  1.416427e+01    1.914511e+03
  1.421738e+01    1.911052e+03
  1.427050e+01    1.902967e+03
  1.432362e+01    1.901576e+03
  1.437674e+01    1.899589e+03
  1.442986e+01    1.886585e+03
  1.448297e+01    1.881844e+03
  1.453609e+01    1.874540e+03
  1.458921e+01    1.864331e+03
  1.464233e+01    1.860331e+03
  1.469545e+01    1.854307e+03
  1.474857e+01    1.835225e+03
  1.480168e+01    1.846299e+03
  1.485480e+01    1.842542e+03
  1.490792e+01    1.836722e+03
  1.496104e+01    1.830130e+03
  1.501416e+01    1.827104e+03
  1.506727e+01    1.822904e+03
  1.512039e+01    1.819704e+03
  1.517351e+01    1.832906e+03
  1.522663e+01    1.846417e+03
  1.527975e+01    1.843472e+03
  1.533286e+01    1.827641e+03
  1.538598e+01    1.817443e+03
  1.543910e+01    1.809977e+03
  1.549222e+01    1.806623e+03
  1.554534e+01    1.807441e+03
  1.559846e+01    1.804186e+03
  1.565157e+01    1.795794e+03
  1.570469e+01    1.790273e+03
  1.575781e+01    1.786855e+03
  1.581093e+01    1.783537e+03
  1.586405e+01    1.782102e+03
  1.591716e+01    1.776326e+03
  1.597028e+01    1.769911e+03
  1.602340e+01    1.754605e+03
  1.607652e+01    1.744098e+03
  1.612964e+01    1.720492e+03
  1.618276e+01    1.707959e+03
  1.623587e+01    1.709399e+03
  1.628899e+01    1.725781e+03
  1.634211e+01    1.724235e+03
  1.639523e+01    1.719362e+03
  1.644835e+01    1.720302e+03
  1.650146e+01    1.713081e+03
  1.655458e+01    1.713731e+03
  1.660770e+01    1.709031e+03
  1.666082e+01    1.703930e+03
  1.671394e+01    1.704833e+03
  1.676706e+01    1.699725e+03
  1.682017e+01    1.712004e+03
  1.687329e+01    1.700511e+03
  1.692641e+01    1.695699e+03
  1.697953e+01    1.691135e+03
  1.703265e+01    1.686139e+03
  1.708576e+01    1.684649e+03
  1.713888e+01    1.676964e+03
  1.719200e+01    1.676576e+03
  1.724512e+01    1.667054e+03
  1.729824e+01    1.667618e+03
  1.735136e+01    1.661362e+03
  1.740447e+01    1.639449e+03
  1.745759e+01    1.648294e+03
  1.751071e+01    1.648979e+03
  1.756383e+01    1.659172e+03
  1.761695e+01    1.644289e+03
  1.767006e+01    1.641960e+03
  1.772318e+01    1.630830e+03
  1.777630e+01    1.630246e+03
  1.782942e+01    1.623505e+03
  1.788254e+01    1.618723e+03
  1.793565e+01    1.615972e+03
  1.798877e+01    1.614746e+03
  1.804189e+01    1.605893e+03
  1.809501e+01    1.601777e+03
  1.814813e+01    1.598896e+03
  1.820125e+01    1.593317e+03
  1.825436e+01    1.598479e+03
  1.830748e+01    1.593959e+03
  1.836060e+01    1.587457e+03
  1.841372e+01    1.585141e+03
  1.846684e+01    1.578925e+03
  1.851995e+01    1.561731e+03
  1.857307e+01    1.553493e+03
  1.862619e+01    1.545553e+03
  1.867931e+01    1.533868e+03
  1.873243e+01    1.550955e+03
  1.878555e+01    1.553435e+03
  1.883866e+01    1.552228e+03
  1.889178e+01    1.551935e+03
  1.894490e+01    1.563057e+03
  1.899802e+01    1.553033e+03
  1.905114e+01    1.549081e+03
  1.910425e+01    1.543912e+03
  1.915737e+01    1.540916e+03
  1.921049e+01    1.535240e+03
  1.926361e+01    1.532232e+03
  1.931673e+01    1.529109e+03
  1.936985e+01    1.526712e+03
  1.942296e+01    1.522873e+03
  1.947608e+01    1.524497e+03
  1.952920e+01    1.520536e+03
  1.958232e+01    1.519402e+03
  1.963544e+01    1.524627e+03
  1.968855e+01    1.510326e+03
  1.974167e+01    1.499301e+03
  1.979479e+01    1.504016e+03
  1.984791e+01    1.502592e+03
  1.990103e+01    1.500225e+03
  1.995414e+01    1.498643e+03
  2.000726e+01    1.496124e+03
  2.006038e+01    1.492394e+03
  2.011350e+01    1.488266e+03
  2.016662e+01    1.482950e+03
  2.021974e+01    1.485573e+03
  2.027285e+01    1.492330e+03
  2.032597e+01    1.476499e+03
  2.037909e+01    1.471527e+03
  2.043221e+01    1.466771e+03
  2.048533e+01    1.465146e+03
  2.053844e+01    1.463655e+03
  2.059156e+01    1.458445e+03
  2.064468e+01    1.455705e+03
  2.069780e+01    1.436938e+03
  2.075092e+01    1.413217e+03
  2.080404e+01    1.399165e+03
  2.085715e+01    1.417318e+03
  2.091027e+01    1.443825e+03
  2.096339e+01    1.450720e+03
  2.101651e+01    1.455757e+03
  2.106963e+01    1.458825e+03
  2.112274e+01    1.463288e+03
  2.117586e+01    1.464203e+03
  2.122898e+01    1.466751e+03
  2.128210e+01    1.463823e+03
  2.133522e+01    1.464875e+03
  2.138834e+01    1.462615e+03
  2.144145e+01    1.462320e+03
  2.149457e+01    1.463898e+03
  2.154769e+01    1.462974e+03
  2.160081e+01    1.460340e+03
  2.165393e+01    1.462038e+03
  2.170704e+01    1.462877e+03
  2.176016e+01    1.452809e+03
  2.181328e+01    1.460217e+03
  2.186640e+01    1.460091e+03
  2.191952e+01    1.458755e+03
  2.197263e+01    1.458821e+03
  2.202575e+01    1.455890e+03
  2.207887e+01    1.455524e+03
  2.213199e+01    1.452864e+03
  2.218511e+01    1.451910e+03
  2.223823e+01    1.453014e+03
  2.229134e+01    1.450117e+03
  2.234446e+01    1.449357e+03
  2.239758e+01    1.448532e+03
  2.245070e+01    1.446120e+03
  2.250382e+01    1.446854e+03
  2.255693e+01    1.444625e+03
  2.261005e+01    1.427101e+03
  2.266317e+01    1.414028e+03
  2.271629e+01    1.405681e+03
  2.276941e+01    1.395965e+03
  2.282253e+01    1.389331e+03
  2.287564e+01    1.384226e+03
  2.292876e+01    1.380014e+03
  2.298188e+01    1.376152e+03
  2.303500e+01    1.375309e+03
  2.308812e+01    1.372555e+03
  2.314123e+01    1.369497e+03
  2.319435e+01    1.365965e+03
  2.324747e+01    1.357068e+03
  2.330059e+01    1.354676e+03
  2.335371e+01    1.352042e+03
  2.340683e+01    1.348632e+03
  2.345994e+01    1.345610e+03
  2.351306e+01    1.341706e+03
  2.356618e+01    1.337081e+03
  2.361930e+01    1.331552e+03
  2.367242e+01    1.325632e+03
  2.372553e+01    1.319918e+03
  2.377865e+01    1.316690e+03
  2.383177e+01    1.311140e+03
  2.388489e+01    1.306274e+03
  2.393801e+01    1.303109e+03
  2.399113e+01    1.300577e+03
  2.404424e+01    1.299975e+03
  2.409736e+01    1.297916e+03
  2.415048e+01    1.295436e+03
  2.420360e+01    1.290882e+03
  2.425672e+01    1.289138e+03
  2.430983e+01    1.284352e+03
  2.436295e+01    1.282158e+03
  2.441607e+01    1.281843e+03
  2.446919e+01    1.277882e+03
  2.452231e+01    1.276543e+03
  2.457542e+01    1.276639e+03
  2.462854e+01    1.271267e+03
  2.468166e+01    1.270219e+03
  2.473478e+01    1.266367e+03
  2.478790e+01    1.261026e+03
  2.484102e+01    1.257037e+03
  2.489413e+01    1.250173e+03
  2.494725e+01    1.246857e+03
  2.500037e+01    1.243036e+03
  2.505349e+01    1.238917e+03
  2.510661e+01    1.233459e+03
  2.515972e+01    1.230062e+03
  2.521284e+01    1.230205e+03
  2.526596e+01    1.228247e+03
  2.531908e+01    1.223923e+03
  2.537220e+01    1.223558e+03
  2.542532e+01    1.219627e+03
  2.547843e+01    1.218221e+03
  2.553155e+01    1.214684e+03
  2.558467e+01    1.205583e+03
  2.563779e+01    1.196972e+03
  2.569091e+01    1.192939e+03
  2.574402e+01    1.186391e+03
  2.579714e+01    1.178930e+03
  2.585026e+01    1.168845e+03
  2.590338e+01    1.165466e+03
  2.595650e+01    1.161546e+03
  2.600962e+01    1.159401e+03
  2.606273e+01    1.160125e+03
  2.611585e+01    1.160768e+03
  2.616897e+01    1.161057e+03
  2.622209e+01    1.156321e+03
  2.627521e+01    1.155411e+03
  2.632832e+01    1.148778e+03
  2.638144e+01    1.146138e+03
  2.643456e+01    1.135924e+03
  2.648768e+01    1.123976e+03
  2.654080e+01    1.079037e+03
