# == pyFAI calibration ==
# Distance Sample to Detector: 0.2946421923531691 m
# PONI: 2.875e-01, 2.439e-01 m
# Rotations: -0.010990 -0.009181 0.000003 rad
# 
# == Fit2d calibration ==
# Distance Sample-beamCenter: 294.672 mm
# Center: x=1436.809, y=1655.851 pix
# Tilt: 0.820 deg  TiltPlanRot: -39.874 deg
# 
# Detector Pilatus 2M	 PixelSize= 1.720e-04, 1.720e-04 m
#    Detector has a mask: True 
#    Detector has a dark current: False 
#    detector has a flat field: False 
# 
# Wavelength: 2.0732883349524408e-11 m
# Mask applied: from detector
# Dark current applied: False
# Flat field applied: False
# Polarization factor: None
# Normalization factor: 1.0
# --> /gpfs/current/raw/FMue_3/FMue_3_20231024_175355_00062.dat
#        q_A^-1             I 
  3.483473e-02             nan
  8.795289e-02             nan
  1.410711e-01             nan
  1.941892e-01             nan
  2.473074e-01             nan
  3.004255e-01             nan
  3.535437e-01             nan
  4.066619e-01    1.211789e+04
  4.597800e-01    1.123256e+04
  5.128982e-01    9.813144e+03
  5.660163e-01    9.097734e+03
  6.191345e-01    8.877554e+03
  6.722527e-01    8.849985e+03
  7.253708e-01    9.040078e+03
  7.784890e-01    9.445703e+03
  8.316071e-01    1.047540e+04
  8.847253e-01    1.261347e+04
  9.378435e-01    1.489087e+04
  9.909616e-01    1.389304e+04
  1.044080e+00    1.149134e+04
  1.097198e+00    1.041244e+04
  1.150316e+00    1.054483e+04
  1.203434e+00    1.117997e+04
  1.256552e+00    1.212720e+04
  1.309671e+00    1.279370e+04
  1.362789e+00    1.369658e+04
  1.415907e+00    1.437839e+04
  1.469025e+00    1.461897e+04
  1.522143e+00    1.455825e+04
  1.575261e+00    1.399018e+04
  1.628380e+00    1.329988e+04
  1.681498e+00    1.242249e+04
  1.734616e+00    1.156659e+04
  1.787734e+00    1.088871e+04
  1.840852e+00    1.038572e+04
  1.893970e+00    9.820057e+03
  1.947089e+00    9.438434e+03
  2.000207e+00    8.865676e+03
  2.053325e+00    8.106877e+03
  2.106443e+00    7.893328e+03
  2.159561e+00    8.039756e+03
  2.212679e+00    8.242063e+03
  2.265797e+00    8.542507e+03
  2.318916e+00    8.689440e+03
  2.372034e+00    9.052099e+03
  2.425152e+00    8.991888e+03
  2.478270e+00    8.904163e+03
  2.531388e+00    9.587323e+03
  2.584506e+00    1.007089e+04
  2.637625e+00    9.728165e+03
  2.690743e+00    9.057485e+03
  2.743861e+00    8.460696e+03
  2.796979e+00    7.327110e+03
  2.850097e+00    6.368617e+03
  2.903215e+00    6.010017e+03
  2.956334e+00    5.874200e+03
  3.009452e+00    5.930056e+03
  3.062570e+00    6.548528e+03
  3.115688e+00    8.403456e+03
  3.168806e+00    9.070194e+03
  3.221924e+00    7.854687e+03
  3.275043e+00    6.490662e+03
  3.328161e+00    5.902479e+03
  3.381279e+00    6.019034e+03
  3.434397e+00    5.596518e+03
  3.487515e+00    5.349328e+03
  3.540633e+00    5.280994e+03
  3.593751e+00    5.126858e+03
  3.646870e+00    5.114488e+03
  3.699988e+00    5.162251e+03
  3.753106e+00    5.273972e+03
  3.806224e+00    5.306266e+03
  3.859342e+00    5.295047e+03
  3.912460e+00    5.349850e+03
  3.965579e+00    5.519199e+03
  4.018697e+00    6.018299e+03
  4.071815e+00    7.098764e+03
  4.124933e+00    7.918483e+03
  4.178051e+00    7.430518e+03
  4.231169e+00    6.813216e+03
  4.284288e+00    6.647082e+03
  4.337406e+00    6.944048e+03
  4.390524e+00    7.576995e+03
  4.443642e+00    9.821668e+03
  4.496760e+00    1.198069e+04
  4.549878e+00    9.149586e+03
  4.602997e+00    6.163937e+03
  4.656115e+00    5.493020e+03
  4.709233e+00    5.497100e+03
  4.762351e+00    5.752594e+03
  4.815469e+00    5.660057e+03
  4.868587e+00    5.444671e+03
  4.921705e+00    5.376609e+03
  4.974824e+00    5.366436e+03
  5.027942e+00    5.289243e+03
  5.081060e+00    5.241081e+03
  5.134178e+00    5.134400e+03
  5.187296e+00    4.995025e+03
  5.240414e+00    4.818815e+03
  5.293533e+00    4.678943e+03
  5.346651e+00    4.524013e+03
  5.399769e+00    4.387766e+03
  5.452887e+00    4.393043e+03
  5.506005e+00    4.435354e+03
  5.559123e+00    4.094874e+03
  5.612242e+00    3.813162e+03
  5.665360e+00    3.715788e+03
  5.718478e+00    3.596925e+03
  5.771596e+00    3.501741e+03
  5.824714e+00    3.481915e+03
  5.877832e+00    3.511780e+03
  5.930951e+00    3.604428e+03
  5.984069e+00    3.716124e+03
  6.037187e+00    3.785563e+03
  6.090305e+00    3.780516e+03
  6.143423e+00    3.728798e+03
  6.196541e+00    3.827081e+03
  6.249660e+00    4.111615e+03
  6.302778e+00    4.217387e+03
  6.355896e+00    3.972223e+03
  6.409014e+00    3.806607e+03
  6.462132e+00    3.691086e+03
  6.515250e+00    3.580441e+03
  6.568368e+00    3.528160e+03
  6.621487e+00    3.479637e+03
  6.674605e+00    3.439803e+03
  6.727723e+00    3.453944e+03
  6.780841e+00    3.438907e+03
  6.833959e+00    3.386566e+03
  6.887077e+00    3.348151e+03
  6.940196e+00    3.302386e+03
  6.993314e+00    3.350201e+03
  7.046432e+00    3.430709e+03
  7.099550e+00    3.421343e+03
  7.152668e+00    3.353961e+03
  7.205786e+00    3.270361e+03
  7.258905e+00    3.183404e+03
  7.312023e+00    3.136119e+03
  7.365141e+00    3.126568e+03
  7.418259e+00    3.141804e+03
  7.471377e+00    3.161430e+03
  7.524495e+00    3.194478e+03
  7.577614e+00    3.215723e+03
  7.630732e+00    3.232448e+03
  7.683850e+00    3.363293e+03
  7.736968e+00    3.587441e+03
  7.790086e+00    3.604703e+03
  7.843204e+00    3.390934e+03
  7.896322e+00    3.168511e+03
  7.949441e+00    3.040671e+03
  8.002559e+00    2.996310e+03
  8.055677e+00    2.999341e+03
  8.108795e+00    3.023000e+03
  8.161913e+00    3.067602e+03
  8.215031e+00    3.069662e+03
  8.268150e+00    3.026988e+03
  8.321268e+00    2.978655e+03
  8.374386e+00    2.958298e+03
  8.427504e+00    2.940637e+03
  8.480622e+00    2.926103e+03
  8.533740e+00    2.874016e+03
  8.586859e+00    2.898574e+03
  8.639977e+00    2.883521e+03
  8.693095e+00    2.861613e+03
  8.746213e+00    2.844859e+03
  8.799331e+00    2.818529e+03
  8.852449e+00    2.804609e+03
  8.905568e+00    2.825215e+03
  8.958686e+00    2.838263e+03
  9.011804e+00    2.846915e+03
  9.064922e+00    2.775633e+03
  9.118040e+00    2.685685e+03
  9.171158e+00    2.650738e+03
  9.224276e+00    2.634017e+03
  9.277395e+00    2.609749e+03
  9.330513e+00    2.604255e+03
  9.383631e+00    2.604190e+03
  9.436749e+00    2.604398e+03
  9.489867e+00    2.612366e+03
  9.542985e+00    2.600669e+03
  9.596104e+00    2.567001e+03
  9.649222e+00    2.545665e+03
  9.702340e+00    2.533654e+03
  9.755458e+00    2.525285e+03
  9.808576e+00    2.519004e+03
  9.861694e+00    2.522965e+03
  9.914813e+00    2.534365e+03
  9.967931e+00    2.527986e+03
  1.002105e+01    2.487709e+03
  1.007417e+01    2.437498e+03
  1.012729e+01    2.404177e+03
  1.018040e+01    2.407213e+03
  1.023352e+01    2.402043e+03
  1.028664e+01    2.388473e+03
  1.033976e+01    2.383326e+03
  1.039288e+01    2.404019e+03
  1.044599e+01    2.390359e+03
  1.049911e+01    2.386133e+03
  1.055223e+01    2.364192e+03
  1.060535e+01    2.359140e+03
  1.065847e+01    2.353208e+03
  1.071158e+01    2.347802e+03
  1.076470e+01    2.342878e+03
  1.081782e+01    2.343115e+03
  1.087094e+01    2.332257e+03
  1.092406e+01    2.332390e+03
  1.097718e+01    2.325089e+03
  1.103029e+01    2.316418e+03
  1.108341e+01    2.305360e+03
  1.113653e+01    2.288972e+03
  1.118965e+01    2.274685e+03
  1.124277e+01    2.266514e+03
  1.129588e+01    2.261184e+03
  1.134900e+01    2.247017e+03
  1.140212e+01    2.241321e+03
  1.145524e+01    2.229525e+03
  1.150836e+01    2.229505e+03
  1.156148e+01    2.217367e+03
  1.161459e+01    2.221104e+03
  1.166771e+01    2.217594e+03
  1.172083e+01    2.234588e+03
  1.177395e+01    2.227073e+03
  1.182707e+01    2.226372e+03
  1.188018e+01    2.231811e+03
  1.193330e+01    2.219457e+03
  1.198642e+01    2.204322e+03
  1.203954e+01    2.184544e+03
  1.209266e+01    2.177191e+03
  1.214578e+01    2.168136e+03
  1.219889e+01    2.168928e+03
  1.225201e+01    2.169121e+03
  1.230513e+01    2.166158e+03
  1.235825e+01    2.172835e+03
  1.241137e+01    2.162575e+03
  1.246448e+01    2.163903e+03
  1.251760e+01    2.163090e+03
  1.257072e+01    2.157872e+03
  1.262384e+01    2.160396e+03
  1.267696e+01    2.144737e+03
  1.273008e+01    2.127210e+03
  1.278319e+01    2.118109e+03
  1.283631e+01    2.106120e+03
  1.288943e+01    2.100151e+03
  1.294255e+01    2.086750e+03
  1.299567e+01    2.079708e+03
  1.304878e+01    2.073078e+03
  1.310190e+01    2.067547e+03
  1.315502e+01    2.060116e+03
  1.320814e+01    2.033313e+03
  1.326126e+01    2.005981e+03
  1.331437e+01    1.992374e+03
  1.336749e+01    1.983073e+03
  1.342061e+01    1.968332e+03
  1.347373e+01    1.993492e+03
  1.352685e+01    1.998562e+03
  1.357997e+01    1.988860e+03
  1.363308e+01    1.978276e+03
  1.368620e+01    1.969677e+03
  1.373932e+01    1.958534e+03
  1.379244e+01    1.953213e+03
  1.384556e+01    1.949101e+03
  1.389867e+01    1.940071e+03
  1.395179e+01    1.932913e+03
  1.400491e+01    1.931180e+03
  1.405803e+01    1.929198e+03
  1.411115e+01    1.919998e+03
  1.416427e+01    1.912246e+03
  1.421738e+01    1.908350e+03
  1.427050e+01    1.901579e+03
  1.432362e+01    1.904462e+03
  1.437674e+01    1.901952e+03
  1.442986e+01    1.890683e+03
  1.448297e+01    1.882917e+03
  1.453609e+01    1.876874e+03
  1.458921e+01    1.868008e+03
  1.464233e+01    1.862678e+03
  1.469545e+01    1.859037e+03
  1.474857e+01    1.840135e+03
  1.480168e+01    1.851661e+03
  1.485480e+01    1.849270e+03
  1.490792e+01    1.845411e+03
  1.496104e+01    1.838299e+03
  1.501416e+01    1.833720e+03
  1.506727e+01    1.830996e+03
  1.512039e+01    1.827236e+03
  1.517351e+01    1.837932e+03
  1.522663e+01    1.851878e+03
  1.527975e+01    1.846772e+03
  1.533286e+01    1.829111e+03
  1.538598e+01    1.819472e+03
  1.543910e+01    1.810340e+03
  1.549222e+01    1.807820e+03
  1.554534e+01    1.808775e+03
  1.559846e+01    1.807743e+03
  1.565157e+01    1.799735e+03
  1.570469e+01    1.794134e+03
  1.575781e+01    1.789200e+03
  1.581093e+01    1.784150e+03
  1.586405e+01    1.782742e+03
  1.591716e+01    1.776209e+03
  1.597028e+01    1.770133e+03
  1.602340e+01    1.755134e+03
  1.607652e+01    1.745663e+03
  1.612964e+01    1.722705e+03
  1.618276e+01    1.710031e+03
  1.623587e+01    1.714599e+03
  1.628899e+01    1.731232e+03
  1.634211e+01    1.729669e+03
  1.639523e+01    1.723492e+03
  1.644835e+01    1.725760e+03
  1.650146e+01    1.719672e+03
  1.655458e+01    1.716098e+03
  1.660770e+01    1.711751e+03
  1.666082e+01    1.707393e+03
  1.671394e+01    1.707564e+03
  1.676706e+01    1.702414e+03
  1.682017e+01    1.715153e+03
  1.687329e+01    1.703949e+03
  1.692641e+01    1.698562e+03
  1.697953e+01    1.693561e+03
  1.703265e+01    1.689776e+03
  1.708576e+01    1.687248e+03
  1.713888e+01    1.678656e+03
  1.719200e+01    1.678206e+03
  1.724512e+01    1.670421e+03
  1.729824e+01    1.670846e+03
  1.735136e+01    1.664352e+03
  1.740447e+01    1.641467e+03
  1.745759e+01    1.650026e+03
  1.751071e+01    1.650957e+03
  1.756383e+01    1.662459e+03
  1.761695e+01    1.644348e+03
  1.767006e+01    1.641985e+03
  1.772318e+01    1.632765e+03
  1.777630e+01    1.631935e+03
  1.782942e+01    1.622641e+03
  1.788254e+01    1.618838e+03
  1.793565e+01    1.616398e+03
  1.798877e+01    1.614416e+03
  1.804189e+01    1.606162e+03
  1.809501e+01    1.602114e+03
  1.814813e+01    1.600776e+03
  1.820125e+01    1.596569e+03
  1.825436e+01    1.601406e+03
  1.830748e+01    1.596084e+03
  1.836060e+01    1.591588e+03
  1.841372e+01    1.588635e+03
  1.846684e+01    1.584053e+03
  1.851995e+01    1.563657e+03
  1.857307e+01    1.549512e+03
  1.862619e+01    1.540754e+03
  1.867931e+01    1.536291e+03
  1.873243e+01    1.555739e+03
  1.878555e+01    1.558082e+03
  1.883866e+01    1.557535e+03
  1.889178e+01    1.557273e+03
  1.894490e+01    1.567526e+03
  1.899802e+01    1.558288e+03
  1.905114e+01    1.553379e+03
  1.910425e+01    1.548028e+03
  1.915737e+01    1.543688e+03
  1.921049e+01    1.540052e+03
  1.926361e+01    1.536680e+03
  1.931673e+01    1.532766e+03
  1.936985e+01    1.530098e+03
  1.942296e+01    1.527738e+03
  1.947608e+01    1.527928e+03
  1.952920e+01    1.524300e+03
  1.958232e+01    1.524773e+03
  1.963544e+01    1.530606e+03
  1.968855e+01    1.514797e+03
  1.974167e+01    1.503829e+03
  1.979479e+01    1.507822e+03
  1.984791e+01    1.506835e+03
  1.990103e+01    1.504814e+03
  1.995414e+01    1.503654e+03
  2.000726e+01    1.500137e+03
  2.006038e+01    1.495243e+03
  2.011350e+01    1.492206e+03
  2.016662e+01    1.485739e+03
  2.021974e+01    1.489349e+03
  2.027285e+01    1.496159e+03
  2.032597e+01    1.480158e+03
  2.037909e+01    1.475260e+03
  2.043221e+01    1.471857e+03
  2.048533e+01    1.469631e+03
  2.053844e+01    1.468157e+03
  2.059156e+01    1.461744e+03
  2.064468e+01    1.459939e+03
  2.069780e+01    1.440784e+03
  2.075092e+01    1.416900e+03
  2.080404e+01    1.401721e+03
  2.085715e+01    1.421248e+03
  2.091027e+01    1.448344e+03
  2.096339e+01    1.455329e+03
  2.101651e+01    1.459957e+03
  2.106963e+01    1.464845e+03
  2.112274e+01    1.466515e+03
  2.117586e+01    1.469048e+03
  2.122898e+01    1.471116e+03
  2.128210e+01    1.470148e+03
  2.133522e+01    1.469903e+03
  2.138834e+01    1.468612e+03
  2.144145e+01    1.468048e+03
  2.149457e+01    1.468886e+03
  2.154769e+01    1.466363e+03
  2.160081e+01    1.466022e+03
  2.165393e+01    1.468135e+03
  2.170704e+01    1.467007e+03
  2.176016e+01    1.457011e+03
  2.181328e+01    1.465693e+03
  2.186640e+01    1.468207e+03
  2.191952e+01    1.465354e+03
  2.197263e+01    1.462599e+03
  2.202575e+01    1.460574e+03
  2.207887e+01    1.460083e+03
  2.213199e+01    1.459260e+03
  2.218511e+01    1.457389e+03
  2.223823e+01    1.457120e+03
  2.229134e+01    1.455682e+03
  2.234446e+01    1.453956e+03
  2.239758e+01    1.453804e+03
  2.245070e+01    1.451773e+03
  2.250382e+01    1.452629e+03
  2.255693e+01    1.448897e+03
  2.261005e+01    1.430043e+03
  2.266317e+01    1.417457e+03
  2.271629e+01    1.409876e+03
  2.276941e+01    1.401556e+03
  2.282253e+01    1.392233e+03
  2.287564e+01    1.386991e+03
  2.292876e+01    1.385052e+03
  2.298188e+01    1.382942e+03
  2.303500e+01    1.377931e+03
  2.308812e+01    1.376292e+03
  2.314123e+01    1.374859e+03
  2.319435e+01    1.369283e+03
  2.324747e+01    1.363089e+03
  2.330059e+01    1.359993e+03
  2.335371e+01    1.356959e+03
  2.340683e+01    1.353433e+03
  2.345994e+01    1.349594e+03
  2.351306e+01    1.346239e+03
  2.356618e+01    1.341791e+03
  2.361930e+01    1.338104e+03
  2.367242e+01    1.330540e+03
  2.372553e+01    1.326694e+03
  2.377865e+01    1.321451e+03
  2.383177e+01    1.315343e+03
  2.388489e+01    1.313082e+03
  2.393801e+01    1.307213e+03
  2.399113e+01    1.304874e+03
  2.404424e+01    1.304702e+03
  2.409736e+01    1.301961e+03
  2.415048e+01    1.297512e+03
  2.420360e+01    1.296365e+03
  2.425672e+01    1.294386e+03
  2.430983e+01    1.287948e+03
  2.436295e+01    1.285089e+03
  2.441607e+01    1.284336e+03
  2.446919e+01    1.281942e+03
  2.452231e+01    1.282592e+03
  2.457542e+01    1.278950e+03
  2.462854e+01    1.275143e+03
  2.468166e+01    1.273974e+03
  2.473478e+01    1.270891e+03
  2.478790e+01    1.262234e+03
  2.484102e+01    1.257993e+03
  2.489413e+01    1.256514e+03
  2.494725e+01    1.252872e+03
  2.500037e+01    1.247952e+03
  2.505349e+01    1.244812e+03
  2.510661e+01    1.235565e+03
  2.515972e+01    1.235920e+03
  2.521284e+01    1.234843e+03
  2.526596e+01    1.233623e+03
  2.531908e+01    1.226085e+03
  2.537220e+01    1.226519e+03
  2.542532e+01    1.223233e+03
  2.547843e+01    1.220800e+03
  2.553155e+01    1.218281e+03
  2.558467e+01    1.209529e+03
  2.563779e+01    1.201511e+03
  2.569091e+01    1.197668e+03
  2.574402e+01    1.187084e+03
  2.579714e+01    1.182117e+03
  2.585026e+01    1.173366e+03
  2.590338e+01    1.165774e+03
  2.595650e+01    1.169094e+03
  2.600962e+01    1.163506e+03
  2.606273e+01    1.165852e+03
  2.611585e+01    1.161378e+03
  2.616897e+01    1.158215e+03
  2.622209e+01    1.159069e+03
  2.627521e+01    1.152619e+03
  2.632832e+01    1.146664e+03
  2.638144e+01    1.147891e+03
  2.643456e+01    1.138302e+03
  2.648768e+01    1.122657e+03
  2.654080e+01    1.101311e+03
