# == pyFAI calibration ==
# Distance Sample to Detector: 0.2946421923531691 m
# PONI: 2.875e-01, 2.439e-01 m
# Rotations: -0.010990 -0.009181 0.000003 rad
# 
# == Fit2d calibration ==
# Distance Sample-beamCenter: 294.672 mm
# Center: x=1436.809, y=1655.851 pix
# Tilt: 0.820 deg  TiltPlanRot: -39.874 deg
# 
# Detector Pilatus 2M	 PixelSize= 1.720e-04, 1.720e-04 m
#    Detector has a mask: True 
#    Detector has a dark current: False 
#    detector has a flat field: False 
# 
# Wavelength: 2.0732883349524408e-11 m
# Mask applied: from detector
# Dark current applied: False
# Flat field applied: False
# Polarization factor: None
# Normalization factor: 1.0
# --> /gpfs/current/raw/FMue_3/FMue_3_20231024_175355_00164.dat
#        q_A^-1             I 
  3.483473e-02             nan
  8.795289e-02             nan
  1.410711e-01             nan
  1.941892e-01             nan
  2.473074e-01             nan
  3.004255e-01             nan
  3.535437e-01             nan
  4.066619e-01    1.185223e+04
  4.597800e-01    1.081066e+04
  5.128982e-01    9.163154e+03
  5.660163e-01    8.303844e+03
  6.191345e-01    7.978970e+03
  6.722527e-01    7.854369e+03
  7.253708e-01    7.901024e+03
  7.784890e-01    7.942954e+03
  8.316071e-01    8.086200e+03
  8.847253e-01    8.203863e+03
  9.378435e-01    8.377931e+03
  9.909616e-01    8.588042e+03
  1.044080e+00    8.895675e+03
  1.097198e+00    9.328836e+03
  1.150316e+00    9.942314e+03
  1.203434e+00    1.065199e+04
  1.256552e+00    1.153449e+04
  1.309671e+00    1.269611e+04
  1.362789e+00    1.377969e+04
  1.415907e+00    1.423757e+04
  1.469025e+00    1.433503e+04
  1.522143e+00    1.420825e+04
  1.575261e+00    1.363338e+04
  1.628380e+00    1.288640e+04
  1.681498e+00    1.195686e+04
  1.734616e+00    1.100345e+04
  1.787734e+00    1.017875e+04
  1.840852e+00    9.460882e+03
  1.893970e+00    8.877268e+03
  1.947089e+00    8.478059e+03
  2.000207e+00    8.173779e+03
  2.053325e+00    8.075665e+03
  2.106443e+00    8.495325e+03
  2.159561e+00    9.409176e+03
  2.212679e+00    9.673778e+03
  2.265797e+00    9.309358e+03
  2.318916e+00    8.605406e+03
  2.372034e+00    7.900999e+03
  2.425152e+00    8.154011e+03
  2.478270e+00    9.560128e+03
  2.531388e+00    1.256543e+04
  2.584506e+00    1.355515e+04
  2.637625e+00    1.069756e+04
  2.690743e+00    8.562097e+03
  2.743861e+00    7.697635e+03
  2.796979e+00    6.422062e+03
  2.850097e+00    5.527334e+03
  2.903215e+00    5.227653e+03
  2.956334e+00    5.166116e+03
  3.009452e+00    5.516456e+03
  3.062570e+00    6.959068e+03
  3.115688e+00    9.248773e+03
  3.168806e+00    9.066253e+03
  3.221924e+00    7.306396e+03
  3.275043e+00    5.762839e+03
  3.328161e+00    4.895005e+03
  3.381279e+00    4.659847e+03
  3.434397e+00    4.664680e+03
  3.487515e+00    4.753312e+03
  3.540633e+00    4.673853e+03
  3.593751e+00    4.589591e+03
  3.646870e+00    4.650055e+03
  3.699988e+00    4.815679e+03
  3.753106e+00    5.086684e+03
  3.806224e+00    5.323585e+03
  3.859342e+00    5.383307e+03
  3.912460e+00    5.641481e+03
  3.965579e+00    6.390905e+03
  4.018697e+00    7.251326e+03
  4.071815e+00    7.352442e+03
  4.124933e+00    6.819790e+03
  4.178051e+00    6.389022e+03
  4.231169e+00    6.238155e+03
  4.284288e+00    6.602246e+03
  4.337406e+00    8.103889e+03
  4.390524e+00    1.023286e+04
  4.443642e+00    1.198502e+04
  4.496760e+00    1.224539e+04
  4.549878e+00    8.574551e+03
  4.602997e+00    5.923389e+03
  4.656115e+00    5.279750e+03
  4.709233e+00    5.069927e+03
  4.762351e+00    5.012810e+03
  4.815469e+00    5.063217e+03
  4.868587e+00    5.181084e+03
  4.921705e+00    5.254682e+03
  4.974824e+00    5.348999e+03
  5.027942e+00    5.474309e+03
  5.081060e+00    5.642315e+03
  5.134178e+00    5.475900e+03
  5.187296e+00    5.063359e+03
  5.240414e+00    4.684107e+03
  5.293533e+00    4.472024e+03
  5.346651e+00    4.374845e+03
  5.399769e+00    4.299771e+03
  5.452887e+00    4.272042e+03
  5.506005e+00    4.149408e+03
  5.559123e+00    3.791293e+03
  5.612242e+00    3.610414e+03
  5.665360e+00    3.575670e+03
  5.718478e+00    3.552742e+03
  5.771596e+00    3.592937e+03
  5.824714e+00    3.683577e+03
  5.877832e+00    3.848260e+03
  5.930951e+00    4.085290e+03
  5.984069e+00    4.134150e+03
  6.037187e+00    3.959684e+03
  6.090305e+00    3.790804e+03
  6.143423e+00    3.740625e+03
  6.196541e+00    3.875435e+03
  6.249660e+00    4.009751e+03
  6.302778e+00    3.888640e+03
  6.355896e+00    3.624042e+03
  6.409014e+00    3.527153e+03
  6.462132e+00    3.461422e+03
  6.515250e+00    3.417513e+03
  6.568368e+00    3.440549e+03
  6.621487e+00    3.505075e+03
  6.674605e+00    3.606292e+03
  6.727723e+00    3.651477e+03
  6.780841e+00    3.516940e+03
  6.833959e+00    3.342251e+03
  6.887077e+00    3.248240e+03
  6.940196e+00    3.212169e+03
  6.993314e+00    3.247785e+03
  7.046432e+00    3.249879e+03
  7.099550e+00    3.177968e+03
  7.152668e+00    3.112412e+03
  7.205786e+00    3.065990e+03
  7.258905e+00    3.053953e+03
  7.312023e+00    3.112486e+03
  7.365141e+00    3.204743e+03
  7.418259e+00    3.250493e+03
  7.471377e+00    3.260345e+03
  7.524495e+00    3.319070e+03
  7.577614e+00    3.447013e+03
  7.630732e+00    3.495881e+03
  7.683850e+00    3.534650e+03
  7.736968e+00    3.607437e+03
  7.790086e+00    3.506830e+03
  7.843204e+00    3.333471e+03
  7.896322e+00    3.201806e+03
  7.949441e+00    3.159625e+03
  8.002559e+00    3.162908e+03
  8.055677e+00    3.129933e+03
  8.108795e+00    3.063753e+03
  8.161913e+00    3.022130e+03
  8.215031e+00    2.974135e+03
  8.268150e+00    2.927213e+03
  8.321268e+00    2.889996e+03
  8.374386e+00    2.868370e+03
  8.427504e+00    2.851889e+03
  8.480622e+00    2.841688e+03
  8.533740e+00    2.797044e+03
  8.586859e+00    2.826032e+03
  8.639977e+00    2.818515e+03
  8.693095e+00    2.805007e+03
  8.746213e+00    2.813859e+03
  8.799331e+00    2.800335e+03
  8.852449e+00    2.783517e+03
  8.905568e+00    2.784535e+03
  8.958686e+00    2.787760e+03
  9.011804e+00    2.781398e+03
  9.064922e+00    2.732800e+03
  9.118040e+00    2.701743e+03
  9.171158e+00    2.680801e+03
  9.224276e+00    2.643862e+03
  9.277395e+00    2.595444e+03
  9.330513e+00    2.564943e+03
  9.383631e+00    2.542978e+03
  9.436749e+00    2.530586e+03
  9.489867e+00    2.541871e+03
  9.542985e+00    2.548659e+03
  9.596104e+00    2.548553e+03
  9.649222e+00    2.554807e+03
  9.702340e+00    2.548390e+03
  9.755458e+00    2.532591e+03
  9.808576e+00    2.527912e+03
  9.861694e+00    2.528269e+03
  9.914813e+00    2.516248e+03
  9.967931e+00    2.494444e+03
  1.002105e+01    2.464229e+03
  1.007417e+01    2.442431e+03
  1.012729e+01    2.423373e+03
  1.018040e+01    2.405983e+03
  1.023352e+01    2.370963e+03
  1.028664e+01    2.338368e+03
  1.033976e+01    2.321760e+03
  1.039288e+01    2.343034e+03
  1.044599e+01    2.332575e+03
  1.049911e+01    2.332479e+03
  1.055223e+01    2.321379e+03
  1.060535e+01    2.323606e+03
  1.065847e+01    2.314206e+03
  1.071158e+01    2.303097e+03
  1.076470e+01    2.293761e+03
  1.081782e+01    2.293295e+03
  1.087094e+01    2.281259e+03
  1.092406e+01    2.295508e+03
  1.097718e+01    2.298371e+03
  1.103029e+01    2.298689e+03
  1.108341e+01    2.288783e+03
  1.113653e+01    2.273090e+03
  1.118965e+01    2.248759e+03
  1.124277e+01    2.235921e+03
  1.129588e+01    2.231188e+03
  1.134900e+01    2.224158e+03
  1.140212e+01    2.231329e+03
  1.145524e+01    2.234671e+03
  1.150836e+01    2.242379e+03
  1.156148e+01    2.239767e+03
  1.161459e+01    2.243277e+03
  1.166771e+01    2.222389e+03
  1.172083e+01    2.227995e+03
  1.177395e+01    2.207845e+03
  1.182707e+01    2.198614e+03
  1.188018e+01    2.201464e+03
  1.193330e+01    2.184700e+03
  1.198642e+01    2.167268e+03
  1.203954e+01    2.147041e+03
  1.209266e+01    2.142297e+03
  1.214578e+01    2.136140e+03
  1.219889e+01    2.141036e+03
  1.225201e+01    2.144147e+03
  1.230513e+01    2.135296e+03
  1.235825e+01    2.132722e+03
  1.241137e+01    2.119143e+03
  1.246448e+01    2.116025e+03
  1.251760e+01    2.110932e+03
  1.257072e+01    2.107091e+03
  1.262384e+01    2.115252e+03
  1.267696e+01    2.099796e+03
  1.273008e+01    2.084896e+03
  1.278319e+01    2.074939e+03
  1.283631e+01    2.062295e+03
  1.288943e+01    2.057562e+03
  1.294255e+01    2.044863e+03
  1.299567e+01    2.043454e+03
  1.304878e+01    2.035813e+03
  1.310190e+01    2.034638e+03
  1.315502e+01    2.031594e+03
  1.320814e+01    2.008015e+03
  1.326126e+01    1.982528e+03
  1.331437e+01    1.976447e+03
  1.336749e+01    1.969286e+03
  1.342061e+01    1.955950e+03
  1.347373e+01    1.979350e+03
  1.352685e+01    1.977100e+03
  1.357997e+01    1.964896e+03
  1.363308e+01    1.954547e+03
  1.368620e+01    1.945524e+03
  1.373932e+01    1.940715e+03
  1.379244e+01    1.936399e+03
  1.384556e+01    1.926825e+03
  1.389867e+01    1.919160e+03
  1.395179e+01    1.909112e+03
  1.400491e+01    1.907578e+03
  1.405803e+01    1.903659e+03
  1.411115e+01    1.896053e+03
  1.416427e+01    1.887106e+03
  1.421738e+01    1.883153e+03
  1.427050e+01    1.872281e+03
  1.432362e+01    1.876233e+03
  1.437674e+01    1.872238e+03
  1.442986e+01    1.861041e+03
  1.448297e+01    1.856280e+03
  1.453609e+01    1.847538e+03
  1.458921e+01    1.838500e+03
  1.464233e+01    1.834705e+03
  1.469545e+01    1.827972e+03
  1.474857e+01    1.808905e+03
  1.480168e+01    1.819319e+03
  1.485480e+01    1.814642e+03
  1.490792e+01    1.811745e+03
  1.496104e+01    1.804297e+03
  1.501416e+01    1.801737e+03
  1.506727e+01    1.798363e+03
  1.512039e+01    1.793879e+03
  1.517351e+01    1.806295e+03
  1.522663e+01    1.820721e+03
  1.527975e+01    1.816794e+03
  1.533286e+01    1.802778e+03
  1.538598e+01    1.793267e+03
  1.543910e+01    1.785564e+03
  1.549222e+01    1.780297e+03
  1.554534e+01    1.779691e+03
  1.559846e+01    1.778812e+03
  1.565157e+01    1.771230e+03
  1.570469e+01    1.765110e+03
  1.575781e+01    1.761920e+03
  1.581093e+01    1.758977e+03
  1.586405e+01    1.756415e+03
  1.591716e+01    1.748759e+03
  1.597028e+01    1.744477e+03
  1.602340e+01    1.729456e+03
  1.607652e+01    1.717395e+03
  1.612964e+01    1.694255e+03
  1.618276e+01    1.682346e+03
  1.623587e+01    1.683725e+03
  1.628899e+01    1.700981e+03
  1.634211e+01    1.700335e+03
  1.639523e+01    1.695092e+03
  1.644835e+01    1.695165e+03
  1.650146e+01    1.690073e+03
  1.655458e+01    1.688482e+03
  1.660770e+01    1.683722e+03
  1.666082e+01    1.678450e+03
  1.671394e+01    1.678843e+03
  1.676706e+01    1.672383e+03
  1.682017e+01    1.686606e+03
  1.687329e+01    1.675349e+03
  1.692641e+01    1.670206e+03
  1.697953e+01    1.666304e+03
  1.703265e+01    1.660629e+03
  1.708576e+01    1.659371e+03
  1.713888e+01    1.650810e+03
  1.719200e+01    1.651041e+03
  1.724512e+01    1.642443e+03
  1.729824e+01    1.642862e+03
  1.735136e+01    1.635797e+03
  1.740447e+01    1.613864e+03
  1.745759e+01    1.622875e+03
  1.751071e+01    1.623239e+03
  1.756383e+01    1.634735e+03
  1.761695e+01    1.619298e+03
  1.767006e+01    1.616251e+03
  1.772318e+01    1.607911e+03
  1.777630e+01    1.605965e+03
  1.782942e+01    1.597428e+03
  1.788254e+01    1.594278e+03
  1.793565e+01    1.591492e+03
  1.798877e+01    1.588620e+03
  1.804189e+01    1.583116e+03
  1.809501e+01    1.577649e+03
  1.814813e+01    1.574451e+03
  1.820125e+01    1.569661e+03
  1.825436e+01    1.575804e+03
  1.830748e+01    1.569706e+03
  1.836060e+01    1.563359e+03
  1.841372e+01    1.561479e+03
  1.846684e+01    1.557698e+03
  1.851995e+01    1.538016e+03
  1.857307e+01    1.523653e+03
  1.862619e+01    1.513540e+03
  1.867931e+01    1.510510e+03
  1.873243e+01    1.528747e+03
  1.878555e+01    1.529776e+03
  1.883866e+01    1.529990e+03
  1.889178e+01    1.529291e+03
  1.894490e+01    1.541654e+03
  1.899802e+01    1.531637e+03
  1.905114e+01    1.525318e+03
  1.910425e+01    1.521162e+03
  1.915737e+01    1.516774e+03
  1.921049e+01    1.512887e+03
  1.926361e+01    1.510099e+03
  1.931673e+01    1.506388e+03
  1.936985e+01    1.504962e+03
  1.942296e+01    1.501475e+03
  1.947608e+01    1.501448e+03
  1.952920e+01    1.497338e+03
  1.958232e+01    1.497723e+03
  1.963544e+01    1.502635e+03
  1.968855e+01    1.488765e+03
  1.974167e+01    1.477921e+03
  1.979479e+01    1.482633e+03
  1.984791e+01    1.479169e+03
  1.990103e+01    1.477248e+03
  1.995414e+01    1.476884e+03
  2.000726e+01    1.473449e+03
  2.006038e+01    1.469179e+03
  2.011350e+01    1.464678e+03
  2.016662e+01    1.459490e+03
  2.021974e+01    1.461565e+03
  2.027285e+01    1.468103e+03
  2.032597e+01    1.452729e+03
  2.037909e+01    1.448207e+03
  2.043221e+01    1.444725e+03
  2.048533e+01    1.442873e+03
  2.053844e+01    1.441776e+03
  2.059156e+01    1.435562e+03
  2.064468e+01    1.432391e+03
  2.069780e+01    1.413248e+03
  2.075092e+01    1.390421e+03
  2.080404e+01    1.376087e+03
  2.085715e+01    1.394952e+03
  2.091027e+01    1.422094e+03
  2.096339e+01    1.428146e+03
  2.101651e+01    1.432151e+03
  2.106963e+01    1.437120e+03
  2.112274e+01    1.439711e+03
  2.117586e+01    1.441128e+03
  2.122898e+01    1.443989e+03
  2.128210e+01    1.441437e+03
  2.133522e+01    1.442897e+03
  2.138834e+01    1.440830e+03
  2.144145e+01    1.440276e+03
  2.149457e+01    1.440101e+03
  2.154769e+01    1.440585e+03
  2.160081e+01    1.438081e+03
  2.165393e+01    1.438702e+03
  2.170704e+01    1.440224e+03
  2.176016e+01    1.429090e+03
  2.181328e+01    1.438708e+03
  2.186640e+01    1.439055e+03
  2.191952e+01    1.437872e+03
  2.197263e+01    1.435406e+03
  2.202575e+01    1.434233e+03
  2.207887e+01    1.433541e+03
  2.213199e+01    1.431427e+03
  2.218511e+01    1.431064e+03
  2.223823e+01    1.430164e+03
  2.229134e+01    1.428854e+03
  2.234446e+01    1.427157e+03
  2.239758e+01    1.426099e+03
  2.245070e+01    1.423846e+03
  2.250382e+01    1.425426e+03
  2.255693e+01    1.421898e+03
  2.261005e+01    1.402957e+03
  2.266317e+01    1.391829e+03
  2.271629e+01    1.382646e+03
  2.276941e+01    1.374303e+03
  2.282253e+01    1.366667e+03
  2.287564e+01    1.364631e+03
  2.292876e+01    1.358649e+03
  2.298188e+01    1.354694e+03
  2.303500e+01    1.351897e+03
  2.308812e+01    1.350848e+03
  2.314123e+01    1.348893e+03
  2.319435e+01    1.344657e+03
  2.324747e+01    1.336664e+03
  2.330059e+01    1.333207e+03
  2.335371e+01    1.331119e+03
  2.340683e+01    1.325281e+03
  2.345994e+01    1.322854e+03
  2.351306e+01    1.318976e+03
  2.356618e+01    1.316036e+03
  2.361930e+01    1.310063e+03
  2.367242e+01    1.305361e+03
  2.372553e+01    1.300807e+03
  2.377865e+01    1.295307e+03
  2.383177e+01    1.288780e+03
  2.388489e+01    1.283964e+03
  2.393801e+01    1.280636e+03
  2.399113e+01    1.280730e+03
  2.404424e+01    1.280064e+03
  2.409736e+01    1.278105e+03
  2.415048e+01    1.273991e+03
  2.420360e+01    1.271384e+03
  2.425672e+01    1.266866e+03
  2.430983e+01    1.264232e+03
  2.436295e+01    1.263767e+03
  2.441607e+01    1.259080e+03
  2.446919e+01    1.259077e+03
  2.452231e+01    1.255682e+03
  2.457542e+01    1.254355e+03
  2.462854e+01    1.254439e+03
  2.468166e+01    1.250129e+03
  2.473478e+01    1.244843e+03
  2.478790e+01    1.240049e+03
  2.484102e+01    1.235520e+03
  2.489413e+01    1.231111e+03
  2.494725e+01    1.224899e+03
  2.500037e+01    1.222531e+03
  2.505349e+01    1.217594e+03
  2.510661e+01    1.213895e+03
  2.515972e+01    1.211895e+03
  2.521284e+01    1.209544e+03
  2.526596e+01    1.209541e+03
  2.531908e+01    1.203477e+03
  2.537220e+01    1.203277e+03
  2.542532e+01    1.198373e+03
  2.547843e+01    1.195463e+03
  2.553155e+01    1.192880e+03
  2.558467e+01    1.187142e+03
  2.563779e+01    1.178170e+03
  2.569091e+01    1.175824e+03
  2.574402e+01    1.164780e+03
  2.579714e+01    1.162759e+03
  2.585026e+01    1.155037e+03
  2.590338e+01    1.146526e+03
  2.595650e+01    1.145805e+03
  2.600962e+01    1.142934e+03
  2.606273e+01    1.147025e+03
  2.611585e+01    1.140543e+03
  2.616897e+01    1.139205e+03
  2.622209e+01    1.138159e+03
  2.627521e+01    1.133259e+03
  2.632832e+01    1.127435e+03
  2.638144e+01    1.122032e+03
  2.643456e+01    1.117134e+03
  2.648768e+01    1.099250e+03
  2.654080e+01    1.090521e+03
