# == pyFAI calibration ==
# Distance Sample to Detector: 0.2946421923531691 m
# PONI: 2.875e-01, 2.439e-01 m
# Rotations: -0.010990 -0.009181 0.000003 rad
# 
# == Fit2d calibration ==
# Distance Sample-beamCenter: 294.672 mm
# Center: x=1436.809, y=1655.851 pix
# Tilt: 0.820 deg  TiltPlanRot: -39.874 deg
# 
# Detector Pilatus 2M	 PixelSize= 1.720e-04, 1.720e-04 m
#    Detector has a mask: True 
#    Detector has a dark current: False 
#    detector has a flat field: False 
# 
# Wavelength: 2.0732883349524408e-11 m
# Mask applied: from detector
# Dark current applied: False
# Flat field applied: False
# Polarization factor: None
# Normalization factor: 1.0
# --> /gpfs/current/raw/FMue_3/FMue_3_20231024_175355_00064.dat
#        q_A^-1             I 
  3.483473e-02             nan
  8.795289e-02             nan
  1.410711e-01             nan
  1.941892e-01             nan
  2.473074e-01             nan
  3.004255e-01             nan
  3.535437e-01             nan
  4.066619e-01    1.248428e+04
  4.597800e-01    1.155234e+04
  5.128982e-01    1.005050e+04
  5.660163e-01    9.290370e+03
  6.191345e-01    9.044767e+03
  6.722527e-01    9.000304e+03
  7.253708e-01    9.170174e+03
  7.784890e-01    9.574401e+03
  8.316071e-01    1.050603e+04
  8.847253e-01    1.230645e+04
  9.378435e-01    1.425526e+04
  9.909616e-01    1.374253e+04
  1.044080e+00    1.167910e+04
  1.097198e+00    1.055023e+04
  1.150316e+00    1.065406e+04
  1.203434e+00    1.128463e+04
  1.256552e+00    1.221950e+04
  1.309671e+00    1.289620e+04
  1.362789e+00    1.380277e+04
  1.415907e+00    1.449122e+04
  1.469025e+00    1.474237e+04
  1.522143e+00    1.466411e+04
  1.575261e+00    1.410867e+04
  1.628380e+00    1.341371e+04
  1.681498e+00    1.252680e+04
  1.734616e+00    1.164595e+04
  1.787734e+00    1.096387e+04
  1.840852e+00    1.043011e+04
  1.893970e+00    9.887623e+03
  1.947089e+00    9.551121e+03
  2.000207e+00    8.972290e+03
  2.053325e+00    8.212079e+03
  2.106443e+00    7.989117e+03
  2.159561e+00    8.153403e+03
  2.212679e+00    8.354452e+03
  2.265797e+00    8.655979e+03
  2.318916e+00    8.773347e+03
  2.372034e+00    9.073764e+03
  2.425152e+00    9.063485e+03
  2.478270e+00    8.978734e+03
  2.531388e+00    9.658773e+03
  2.584506e+00    1.013498e+04
  2.637625e+00    9.793764e+03
  2.690743e+00    9.133979e+03
  2.743861e+00    8.532706e+03
  2.796979e+00    7.389749e+03
  2.850097e+00    6.424415e+03
  2.903215e+00    6.064913e+03
  2.956334e+00    5.927622e+03
  3.009452e+00    5.985610e+03
  3.062570e+00    6.599282e+03
  3.115688e+00    8.471912e+03
  3.168806e+00    9.147469e+03
  3.221924e+00    7.928985e+03
  3.275043e+00    6.546454e+03
  3.328161e+00    5.944246e+03
  3.381279e+00    6.058269e+03
  3.434397e+00    5.637074e+03
  3.487515e+00    5.386919e+03
  3.540633e+00    5.319466e+03
  3.593751e+00    5.158976e+03
  3.646870e+00    5.151167e+03
  3.699988e+00    5.197530e+03
  3.753106e+00    5.315849e+03
  3.806224e+00    5.356792e+03
  3.859342e+00    5.339975e+03
  3.912460e+00    5.402274e+03
  3.965579e+00    5.575112e+03
  4.018697e+00    6.067231e+03
  4.071815e+00    7.092954e+03
  4.124933e+00    7.884349e+03
  4.178051e+00    7.485949e+03
  4.231169e+00    6.895603e+03
  4.284288e+00    6.723943e+03
  4.337406e+00    7.025546e+03
  4.390524e+00    7.668380e+03
  4.443642e+00    9.936098e+03
  4.496760e+00    1.211319e+04
  4.549878e+00    9.255981e+03
  4.602997e+00    6.237943e+03
  4.656115e+00    5.548456e+03
  4.709233e+00    5.538656e+03
  4.762351e+00    5.779836e+03
  4.815469e+00    5.703778e+03
  4.868587e+00    5.490545e+03
  4.921705e+00    5.424355e+03
  4.974824e+00    5.418027e+03
  5.027942e+00    5.338845e+03
  5.081060e+00    5.288518e+03
  5.134178e+00    5.180665e+03
  5.187296e+00    5.045105e+03
  5.240414e+00    4.860220e+03
  5.293533e+00    4.718603e+03
  5.346651e+00    4.562093e+03
  5.399769e+00    4.424494e+03
  5.452887e+00    4.430237e+03
  5.506005e+00    4.470511e+03
  5.559123e+00    4.130376e+03
  5.612242e+00    3.843138e+03
  5.665360e+00    3.745636e+03
  5.718478e+00    3.624847e+03
  5.771596e+00    3.535509e+03
  5.824714e+00    3.511449e+03
  5.877832e+00    3.548657e+03
  5.930951e+00    3.635497e+03
  5.984069e+00    3.751270e+03
  6.037187e+00    3.825163e+03
  6.090305e+00    3.818443e+03
  6.143423e+00    3.762260e+03
  6.196541e+00    3.858474e+03
  6.249660e+00    4.133472e+03
  6.302778e+00    4.235582e+03
  6.355896e+00    3.999902e+03
  6.409014e+00    3.834994e+03
  6.462132e+00    3.723505e+03
  6.515250e+00    3.609518e+03
  6.568368e+00    3.556838e+03
  6.621487e+00    3.510546e+03
  6.674605e+00    3.470271e+03
  6.727723e+00    3.486340e+03
  6.780841e+00    3.468840e+03
  6.833959e+00    3.418207e+03
  6.887077e+00    3.374612e+03
  6.940196e+00    3.333004e+03
  6.993314e+00    3.380181e+03
  7.046432e+00    3.459802e+03
  7.099550e+00    3.438816e+03
  7.152668e+00    3.376647e+03
  7.205786e+00    3.296380e+03
  7.258905e+00    3.210900e+03
  7.312023e+00    3.165675e+03
  7.365141e+00    3.156481e+03
  7.418259e+00    3.172478e+03
  7.471377e+00    3.192611e+03
  7.524495e+00    3.224746e+03
  7.577614e+00    3.248265e+03
  7.630732e+00    3.266214e+03
  7.683850e+00    3.396905e+03
  7.736968e+00    3.622404e+03
  7.790086e+00    3.635162e+03
  7.843204e+00    3.423651e+03
  7.896322e+00    3.197327e+03
  7.949441e+00    3.067880e+03
  8.002559e+00    3.024679e+03
  8.055677e+00    3.025053e+03
  8.108795e+00    3.046804e+03
  8.161913e+00    3.092469e+03
  8.215031e+00    3.094730e+03
  8.268150e+00    3.049290e+03
  8.321268e+00    3.006349e+03
  8.374386e+00    2.980239e+03
  8.427504e+00    2.967280e+03
  8.480622e+00    2.946917e+03
  8.533740e+00    2.891924e+03
  8.586859e+00    2.920350e+03
  8.639977e+00    2.907127e+03
  8.693095e+00    2.886474e+03
  8.746213e+00    2.870048e+03
  8.799331e+00    2.843544e+03
  8.852449e+00    2.829175e+03
  8.905568e+00    2.848687e+03
  8.958686e+00    2.865385e+03
  9.011804e+00    2.872461e+03
  9.064922e+00    2.797601e+03
  9.118040e+00    2.712098e+03
  9.171158e+00    2.671828e+03
  9.224276e+00    2.656263e+03
  9.277395e+00    2.633904e+03
  9.330513e+00    2.626837e+03
  9.383631e+00    2.623726e+03
  9.436749e+00    2.622259e+03
  9.489867e+00    2.634290e+03
  9.542985e+00    2.624219e+03
  9.596104e+00    2.588584e+03
  9.649222e+00    2.567238e+03
  9.702340e+00    2.554438e+03
  9.755458e+00    2.549038e+03
  9.808576e+00    2.541119e+03
  9.861694e+00    2.547082e+03
  9.914813e+00    2.556601e+03
  9.967931e+00    2.550808e+03
  1.002105e+01    2.509691e+03
  1.007417e+01    2.458903e+03
  1.012729e+01    2.425474e+03
  1.018040e+01    2.429312e+03
  1.023352e+01    2.422756e+03
  1.028664e+01    2.408540e+03
  1.033976e+01    2.401008e+03
  1.039288e+01    2.424879e+03
  1.044599e+01    2.411418e+03
  1.049911e+01    2.406848e+03
  1.055223e+01    2.383748e+03
  1.060535e+01    2.380177e+03
  1.065847e+01    2.371688e+03
  1.071158e+01    2.369505e+03
  1.076470e+01    2.360846e+03
  1.081782e+01    2.362738e+03
  1.087094e+01    2.349167e+03
  1.092406e+01    2.350812e+03
  1.097718e+01    2.346454e+03
  1.103029e+01    2.334341e+03
  1.108341e+01    2.325954e+03
  1.113653e+01    2.309174e+03
  1.118965e+01    2.295751e+03
  1.124277e+01    2.287190e+03
  1.129588e+01    2.279941e+03
  1.134900e+01    2.266947e+03
  1.140212e+01    2.262461e+03
  1.145524e+01    2.248698e+03
  1.150836e+01    2.248281e+03
  1.156148e+01    2.237969e+03
  1.161459e+01    2.239587e+03
  1.166771e+01    2.235400e+03
  1.172083e+01    2.253905e+03
  1.177395e+01    2.245054e+03
  1.182707e+01    2.246463e+03
  1.188018e+01    2.250650e+03
  1.193330e+01    2.237837e+03
  1.198642e+01    2.223405e+03
  1.203954e+01    2.202371e+03
  1.209266e+01    2.195023e+03
  1.214578e+01    2.185591e+03
  1.219889e+01    2.187797e+03
  1.225201e+01    2.187642e+03
  1.230513e+01    2.183443e+03
  1.235825e+01    2.189019e+03
  1.241137e+01    2.179576e+03
  1.246448e+01    2.181476e+03
  1.251760e+01    2.181193e+03
  1.257072e+01    2.174636e+03
  1.262384e+01    2.177562e+03
  1.267696e+01    2.161856e+03
  1.273008e+01    2.144648e+03
  1.278319e+01    2.135319e+03
  1.283631e+01    2.124196e+03
  1.288943e+01    2.117981e+03
  1.294255e+01    2.105569e+03
  1.299567e+01    2.097983e+03
  1.304878e+01    2.089059e+03
  1.310190e+01    2.084229e+03
  1.315502e+01    2.078024e+03
  1.320814e+01    2.051060e+03
  1.326126e+01    2.023117e+03
  1.331437e+01    2.008859e+03
  1.336749e+01    1.998510e+03
  1.342061e+01    1.984948e+03
  1.347373e+01    2.011166e+03
  1.352685e+01    2.016267e+03
  1.357997e+01    2.004369e+03
  1.363308e+01    1.994127e+03
  1.368620e+01    1.986404e+03
  1.373932e+01    1.974982e+03
  1.379244e+01    1.970047e+03
  1.384556e+01    1.962579e+03
  1.389867e+01    1.955814e+03
  1.395179e+01    1.947874e+03
  1.400491e+01    1.947587e+03
  1.405803e+01    1.945492e+03
  1.411115e+01    1.936858e+03
  1.416427e+01    1.926595e+03
  1.421738e+01    1.924331e+03
  1.427050e+01    1.919017e+03
  1.432362e+01    1.919894e+03
  1.437674e+01    1.917151e+03
  1.442986e+01    1.906930e+03
  1.448297e+01    1.900016e+03
  1.453609e+01    1.892360e+03
  1.458921e+01    1.882884e+03
  1.464233e+01    1.879494e+03
  1.469545e+01    1.873543e+03
  1.474857e+01    1.856009e+03
  1.480168e+01    1.867723e+03
  1.485480e+01    1.864075e+03
  1.490792e+01    1.860187e+03
  1.496104e+01    1.852736e+03
  1.501416e+01    1.851065e+03
  1.506727e+01    1.843774e+03
  1.512039e+01    1.841199e+03
  1.517351e+01    1.853587e+03
  1.522663e+01    1.867002e+03
  1.527975e+01    1.864292e+03
  1.533286e+01    1.844966e+03
  1.538598e+01    1.833657e+03
  1.543910e+01    1.825848e+03
  1.549222e+01    1.823207e+03
  1.554534e+01    1.822676e+03
  1.559846e+01    1.822069e+03
  1.565157e+01    1.813917e+03
  1.570469e+01    1.807475e+03
  1.575781e+01    1.802175e+03
  1.581093e+01    1.799250e+03
  1.586405e+01    1.797622e+03
  1.591716e+01    1.791690e+03
  1.597028e+01    1.785314e+03
  1.602340e+01    1.771125e+03
  1.607652e+01    1.760797e+03
  1.612964e+01    1.737078e+03
  1.618276e+01    1.725924e+03
  1.623587e+01    1.728795e+03
  1.628899e+01    1.745848e+03
  1.634211e+01    1.744043e+03
  1.639523e+01    1.739304e+03
  1.644835e+01    1.740422e+03
  1.650146e+01    1.733275e+03
  1.655458e+01    1.729740e+03
  1.660770e+01    1.725361e+03
  1.666082e+01    1.720240e+03
  1.671394e+01    1.719271e+03
  1.676706e+01    1.716556e+03
  1.682017e+01    1.728502e+03
  1.687329e+01    1.719517e+03
  1.692641e+01    1.712335e+03
  1.697953e+01    1.706387e+03
  1.703265e+01    1.702496e+03
  1.708576e+01    1.699125e+03
  1.713888e+01    1.692372e+03
  1.719200e+01    1.691637e+03
  1.724512e+01    1.683205e+03
  1.729824e+01    1.683621e+03
  1.735136e+01    1.677587e+03
  1.740447e+01    1.656761e+03
  1.745759e+01    1.663497e+03
  1.751071e+01    1.664515e+03
  1.756383e+01    1.676143e+03
  1.761695e+01    1.658772e+03
  1.767006e+01    1.655356e+03
  1.772318e+01    1.646180e+03
  1.777630e+01    1.644407e+03
  1.782942e+01    1.635950e+03
  1.788254e+01    1.631138e+03
  1.793565e+01    1.628956e+03
  1.798877e+01    1.626293e+03
  1.804189e+01    1.619960e+03
  1.809501e+01    1.616362e+03
  1.814813e+01    1.613574e+03
  1.820125e+01    1.608602e+03
  1.825436e+01    1.614037e+03
  1.830748e+01    1.607273e+03
  1.836060e+01    1.603943e+03
  1.841372e+01    1.600529e+03
  1.846684e+01    1.596762e+03
  1.851995e+01    1.576409e+03
  1.857307e+01    1.562677e+03
  1.862619e+01    1.552079e+03
  1.867931e+01    1.549027e+03
  1.873243e+01    1.568626e+03
  1.878555e+01    1.571225e+03
  1.883866e+01    1.569472e+03
  1.889178e+01    1.568907e+03
  1.894490e+01    1.580613e+03
  1.899802e+01    1.569667e+03
  1.905114e+01    1.566800e+03
  1.910425e+01    1.560186e+03
  1.915737e+01    1.556566e+03
  1.921049e+01    1.551397e+03
  1.926361e+01    1.548472e+03
  1.931673e+01    1.546163e+03
  1.936985e+01    1.543901e+03
  1.942296e+01    1.539563e+03
  1.947608e+01    1.539422e+03
  1.952920e+01    1.536856e+03
  1.958232e+01    1.536099e+03
  1.963544e+01    1.543105e+03
  1.968855e+01    1.527826e+03
  1.974167e+01    1.515689e+03
  1.979479e+01    1.521211e+03
  1.984791e+01    1.518800e+03
  1.990103e+01    1.517690e+03
  1.995414e+01    1.515367e+03
  2.000726e+01    1.513018e+03
  2.006038e+01    1.509061e+03
  2.011350e+01    1.504758e+03
  2.016662e+01    1.498645e+03
  2.021974e+01    1.502045e+03
  2.027285e+01    1.508141e+03
  2.032597e+01    1.491912e+03
  2.037909e+01    1.487590e+03
  2.043221e+01    1.483545e+03
  2.048533e+01    1.480481e+03
  2.053844e+01    1.480401e+03
  2.059156e+01    1.475703e+03
  2.064468e+01    1.472561e+03
  2.069780e+01    1.452905e+03
  2.075092e+01    1.427935e+03
  2.080404e+01    1.413930e+03
  2.085715e+01    1.432640e+03
  2.091027e+01    1.459803e+03
  2.096339e+01    1.467969e+03
  2.101651e+01    1.473309e+03
  2.106963e+01    1.475709e+03
  2.112274e+01    1.480083e+03
  2.117586e+01    1.482025e+03
  2.122898e+01    1.484302e+03
  2.128210e+01    1.481833e+03
  2.133522e+01    1.482483e+03
  2.138834e+01    1.480334e+03
  2.144145e+01    1.480209e+03
  2.149457e+01    1.481373e+03
  2.154769e+01    1.478174e+03
  2.160081e+01    1.478298e+03
  2.165393e+01    1.478291e+03
  2.170704e+01    1.479243e+03
  2.176016e+01    1.468912e+03
  2.181328e+01    1.478188e+03
  2.186640e+01    1.478916e+03
  2.191952e+01    1.476191e+03
  2.197263e+01    1.474917e+03
  2.202575e+01    1.473202e+03
  2.207887e+01    1.473161e+03
  2.213199e+01    1.471141e+03
  2.218511e+01    1.469328e+03
  2.223823e+01    1.468262e+03
  2.229134e+01    1.466961e+03
  2.234446e+01    1.464812e+03
  2.239758e+01    1.465433e+03
  2.245070e+01    1.463204e+03
  2.250382e+01    1.464085e+03
  2.255693e+01    1.460485e+03
  2.261005e+01    1.443093e+03
  2.266317e+01    1.430627e+03
  2.271629e+01    1.422103e+03
  2.276941e+01    1.413094e+03
  2.282253e+01    1.404061e+03
  2.287564e+01    1.400175e+03
  2.292876e+01    1.395621e+03
  2.298188e+01    1.393506e+03
  2.303500e+01    1.390394e+03
  2.308812e+01    1.387138e+03
  2.314123e+01    1.387116e+03
  2.319435e+01    1.381309e+03
  2.324747e+01    1.373773e+03
  2.330059e+01    1.369854e+03
  2.335371e+01    1.367251e+03
  2.340683e+01    1.363460e+03
  2.345994e+01    1.361176e+03
  2.351306e+01    1.358234e+03
  2.356618e+01    1.354047e+03
  2.361930e+01    1.348446e+03
  2.367242e+01    1.342513e+03
  2.372553e+01    1.337402e+03
  2.377865e+01    1.332793e+03
  2.383177e+01    1.328090e+03
  2.388489e+01    1.321882e+03
  2.393801e+01    1.317290e+03
  2.399113e+01    1.317147e+03
  2.404424e+01    1.314597e+03
  2.409736e+01    1.314205e+03
  2.415048e+01    1.310052e+03
  2.420360e+01    1.306467e+03
  2.425672e+01    1.302574e+03
  2.430983e+01    1.300556e+03
  2.436295e+01    1.298706e+03
  2.441607e+01    1.296044e+03
  2.446919e+01    1.293491e+03
  2.452231e+01    1.294627e+03
  2.457542e+01    1.289846e+03
  2.462854e+01    1.286477e+03
  2.468166e+01    1.285491e+03
  2.473478e+01    1.284408e+03
  2.478790e+01    1.276044e+03
  2.484102e+01    1.270328e+03
  2.489413e+01    1.265308e+03
  2.494725e+01    1.262338e+03
  2.500037e+01    1.256263e+03
  2.505349e+01    1.253499e+03
  2.510661e+01    1.249091e+03
  2.515972e+01    1.245435e+03
  2.521284e+01    1.243693e+03
  2.526596e+01    1.243432e+03
  2.531908e+01    1.236963e+03
  2.537220e+01    1.236630e+03
  2.542532e+01    1.233715e+03
  2.547843e+01    1.229276e+03
  2.553155e+01    1.226548e+03
  2.558467e+01    1.219180e+03
  2.563779e+01    1.208870e+03
  2.569091e+01    1.206790e+03
  2.574402e+01    1.197619e+03
  2.579714e+01    1.189458e+03
  2.585026e+01    1.185043e+03
  2.590338e+01    1.175956e+03
  2.595650e+01    1.174337e+03
  2.600962e+01    1.174335e+03
  2.606273e+01    1.176163e+03
  2.611585e+01    1.172436e+03
  2.616897e+01    1.173065e+03
  2.622209e+01    1.166667e+03
  2.627521e+01    1.159243e+03
  2.632832e+01    1.158497e+03
  2.638144e+01    1.152510e+03
  2.643456e+01    1.151923e+03
  2.648768e+01    1.137898e+03
  2.654080e+01    1.103984e+03
