# == pyFAI calibration ==
# Distance Sample to Detector: 0.2946421923531691 m
# PONI: 2.875e-01, 2.439e-01 m
# Rotations: -0.010990 -0.009181 0.000003 rad
# 
# == Fit2d calibration ==
# Distance Sample-beamCenter: 294.672 mm
# Center: x=1436.809, y=1655.851 pix
# Tilt: 0.820 deg  TiltPlanRot: -39.874 deg
# 
# Detector Pilatus 2M	 PixelSize= 1.720e-04, 1.720e-04 m
#    Detector has a mask: True 
#    Detector has a dark current: False 
#    detector has a flat field: False 
# 
# Wavelength: 2.0732883349524408e-11 m
# Mask applied: from detector
# Dark current applied: False
# Flat field applied: False
# Polarization factor: None
# Normalization factor: 1.0
# --> /gpfs/current/raw/FMue_3/FMue_3_20231024_175355_00110.dat
#        q_A^-1             I 
  3.483473e-02             nan
  8.795289e-02             nan
  1.410711e-01             nan
  1.941892e-01             nan
  2.473074e-01             nan
  3.004255e-01             nan
  3.535437e-01             nan
  4.066619e-01    1.327764e+04
  4.597800e-01    1.214000e+04
  5.128982e-01    1.025642e+04
  5.660163e-01    9.219864e+03
  6.191345e-01    8.764326e+03
  6.722527e-01    8.552827e+03
  7.253708e-01    8.528535e+03
  7.784890e-01    8.559007e+03
  8.316071e-01    8.710608e+03
  8.847253e-01    8.884114e+03
  9.378435e-01    9.338313e+03
  9.909616e-01    1.000586e+04
  1.044080e+00    1.011069e+04
  1.097198e+00    9.934354e+03
  1.150316e+00    1.033457e+04
  1.203434e+00    1.102110e+04
  1.256552e+00    1.188018e+04
  1.309671e+00    1.295271e+04
  1.362789e+00    1.401579e+04
  1.415907e+00    1.453434e+04
  1.469025e+00    1.461230e+04
  1.522143e+00    1.444250e+04
  1.575261e+00    1.382221e+04
  1.628380e+00    1.306689e+04
  1.681498e+00    1.212442e+04
  1.734616e+00    1.117947e+04
  1.787734e+00    1.034803e+04
  1.840852e+00    9.651162e+03
  1.893970e+00    9.160484e+03
  1.947089e+00    9.076786e+03
  2.000207e+00    8.802713e+03
  2.053325e+00    8.320184e+03
  2.106443e+00    8.410794e+03
  2.159561e+00    8.887534e+03
  2.212679e+00    9.152839e+03
  2.265797e+00    9.202604e+03
  2.318916e+00    8.759082e+03
  2.372034e+00    8.084042e+03
  2.425152e+00    8.309869e+03
  2.478270e+00    9.319381e+03
  2.531388e+00    1.119017e+04
  2.584506e+00    1.219592e+04
  2.637625e+00    1.098034e+04
  2.690743e+00    9.300466e+03
  2.743861e+00    8.133771e+03
  2.796979e+00    6.707889e+03
  2.850097e+00    5.714745e+03
  2.903215e+00    5.379842e+03
  2.956334e+00    5.319209e+03
  3.009452e+00    5.613386e+03
  3.062570e+00    6.793290e+03
  3.115688e+00    9.118002e+03
  3.168806e+00    9.403254e+03
  3.221924e+00    7.659438e+03
  3.275043e+00    6.104877e+03
  3.328161e+00    5.419413e+03
  3.381279e+00    5.429823e+03
  3.434397e+00    5.185730e+03
  3.487515e+00    4.951146e+03
  3.540633e+00    4.871980e+03
  3.593751e+00    4.730972e+03
  3.646870e+00    4.741903e+03
  3.699988e+00    4.890161e+03
  3.753106e+00    5.120156e+03
  3.806224e+00    5.279327e+03
  3.859342e+00    5.401866e+03
  3.912460e+00    5.650213e+03
  3.965579e+00    6.099811e+03
  4.018697e+00    6.694645e+03
  4.071815e+00    7.092915e+03
  4.124933e+00    6.946767e+03
  4.178051e+00    6.589336e+03
  4.231169e+00    6.403113e+03
  4.284288e+00    6.744166e+03
  4.337406e+00    7.895015e+03
  4.390524e+00    9.510317e+03
  4.443642e+00    1.178884e+04
  4.496760e+00    1.277648e+04
  4.549878e+00    9.117218e+03
  4.602997e+00    6.104975e+03
  4.656115e+00    5.390320e+03
  4.709233e+00    5.243880e+03
  4.762351e+00    5.321204e+03
  4.815469e+00    5.278454e+03
  4.868587e+00    5.208200e+03
  4.921705e+00    5.240567e+03
  4.974824e+00    5.335424e+03
  5.027942e+00    5.402603e+03
  5.081060e+00    5.502616e+03
  5.134178e+00    5.430983e+03
  5.187296e+00    5.189626e+03
  5.240414e+00    4.868789e+03
  5.293533e+00    4.646574e+03
  5.346651e+00    4.503203e+03
  5.399769e+00    4.408644e+03
  5.452887e+00    4.391996e+03
  5.506005e+00    4.342247e+03
  5.559123e+00    3.988472e+03
  5.612242e+00    3.732769e+03
  5.665360e+00    3.649092e+03
  5.718478e+00    3.575845e+03
  5.771596e+00    3.560758e+03
  5.824714e+00    3.625281e+03
  5.877832e+00    3.752581e+03
  5.930951e+00    3.925450e+03
  5.984069e+00    4.041365e+03
  6.037187e+00    4.014676e+03
  6.090305e+00    3.891535e+03
  6.143423e+00    3.777847e+03
  6.196541e+00    3.845082e+03
  6.249660e+00    4.020684e+03
  6.302778e+00    3.984453e+03
  6.355896e+00    3.710951e+03
  6.409014e+00    3.576572e+03
  6.462132e+00    3.503942e+03
  6.515250e+00    3.443203e+03
  6.568368e+00    3.456686e+03
  6.621487e+00    3.492552e+03
  6.674605e+00    3.545383e+03
  6.727723e+00    3.610421e+03
  6.780841e+00    3.585276e+03
  6.833959e+00    3.483488e+03
  6.887077e+00    3.376325e+03
  6.940196e+00    3.307383e+03
  6.993314e+00    3.335920e+03
  7.046432e+00    3.354460e+03
  7.099550e+00    3.264502e+03
  7.152668e+00    3.189781e+03
  7.205786e+00    3.139803e+03
  7.258905e+00    3.100609e+03
  7.312023e+00    3.128629e+03
  7.365141e+00    3.186190e+03
  7.418259e+00    3.241604e+03
  7.471377e+00    3.288062e+03
  7.524495e+00    3.348994e+03
  7.577614e+00    3.432696e+03
  7.630732e+00    3.504632e+03
  7.683850e+00    3.605754e+03
  7.736968e+00    3.728085e+03
  7.790086e+00    3.648808e+03
  7.843204e+00    3.426052e+03
  7.896322e+00    3.244829e+03
  7.949441e+00    3.156222e+03
  8.002559e+00    3.137670e+03
  8.055677e+00    3.138289e+03
  8.108795e+00    3.124870e+03
  8.161913e+00    3.095037e+03
  8.215031e+00    3.036332e+03
  8.268150e+00    2.972589e+03
  8.321268e+00    2.925927e+03
  8.374386e+00    2.905065e+03
  8.427504e+00    2.884908e+03
  8.480622e+00    2.864195e+03
  8.533740e+00    2.810125e+03
  8.586859e+00    2.839396e+03
  8.639977e+00    2.839317e+03
  8.693095e+00    2.831437e+03
  8.746213e+00    2.834624e+03
  8.799331e+00    2.823979e+03
  8.852449e+00    2.816981e+03
  8.905568e+00    2.829608e+03
  8.958686e+00    2.837383e+03
  9.011804e+00    2.833815e+03
  9.064922e+00    2.773397e+03
  9.118040e+00    2.716112e+03
  9.171158e+00    2.696655e+03
  9.224276e+00    2.678939e+03
  9.277395e+00    2.644760e+03
  9.330513e+00    2.622246e+03
  9.383631e+00    2.605918e+03
  9.436749e+00    2.591140e+03
  9.489867e+00    2.593666e+03
  9.542985e+00    2.590189e+03
  9.596104e+00    2.574553e+03
  9.649222e+00    2.575370e+03
  9.702340e+00    2.573842e+03
  9.755458e+00    2.567004e+03
  9.808576e+00    2.561783e+03
  9.861694e+00    2.565978e+03
  9.914813e+00    2.566760e+03
  9.967931e+00    2.545243e+03
  1.002105e+01    2.506693e+03
  1.007417e+01    2.466492e+03
  1.012729e+01    2.443222e+03
  1.018040e+01    2.439646e+03
  1.023352e+01    2.422826e+03
  1.028664e+01    2.389786e+03
  1.033976e+01    2.370969e+03
  1.039288e+01    2.387136e+03
  1.044599e+01    2.373615e+03
  1.049911e+01    2.369867e+03
  1.055223e+01    2.352821e+03
  1.060535e+01    2.353506e+03
  1.065847e+01    2.344609e+03
  1.071158e+01    2.338366e+03
  1.076470e+01    2.332569e+03
  1.081782e+01    2.329380e+03
  1.087094e+01    2.316063e+03
  1.092406e+01    2.323617e+03
  1.097718e+01    2.325607e+03
  1.103029e+01    2.325065e+03
  1.108341e+01    2.323486e+03
  1.113653e+01    2.313389e+03
  1.118965e+01    2.296025e+03
  1.124277e+01    2.280937e+03
  1.129588e+01    2.274481e+03
  1.134900e+01    2.262030e+03
  1.140212e+01    2.263051e+03
  1.145524e+01    2.258432e+03
  1.150836e+01    2.266365e+03
  1.156148e+01    2.264276e+03
  1.161459e+01    2.268913e+03
  1.166771e+01    2.262281e+03
  1.172083e+01    2.270990e+03
  1.177395e+01    2.252486e+03
  1.182707e+01    2.241354e+03
  1.188018e+01    2.239297e+03
  1.193330e+01    2.224017e+03
  1.198642e+01    2.203565e+03
  1.203954e+01    2.182775e+03
  1.209266e+01    2.174135e+03
  1.214578e+01    2.164338e+03
  1.219889e+01    2.168693e+03
  1.225201e+01    2.168114e+03
  1.230513e+01    2.163410e+03
  1.235825e+01    2.164129e+03
  1.241137e+01    2.150239e+03
  1.246448e+01    2.149359e+03
  1.251760e+01    2.145296e+03
  1.257072e+01    2.139105e+03
  1.262384e+01    2.143692e+03
  1.267696e+01    2.130065e+03
  1.273008e+01    2.113502e+03
  1.278319e+01    2.106872e+03
  1.283631e+01    2.096657e+03
  1.288943e+01    2.091892e+03
  1.294255e+01    2.078814e+03
  1.299567e+01    2.075226e+03
  1.304878e+01    2.066998e+03
  1.310190e+01    2.064467e+03
  1.315502e+01    2.061534e+03
  1.320814e+01    2.038514e+03
  1.326126e+01    2.015172e+03
  1.331437e+01    2.005806e+03
  1.336749e+01    1.997016e+03
  1.342061e+01    1.986019e+03
  1.347373e+01    2.013554e+03
  1.352685e+01    2.013698e+03
  1.357997e+01    2.001011e+03
  1.363308e+01    1.988849e+03
  1.368620e+01    1.980202e+03
  1.373932e+01    1.970803e+03
  1.379244e+01    1.966590e+03
  1.384556e+01    1.959569e+03
  1.389867e+01    1.952064e+03
  1.395179e+01    1.942454e+03
  1.400491e+01    1.940555e+03
  1.405803e+01    1.935729e+03
  1.411115e+01    1.929154e+03
  1.416427e+01    1.918314e+03
  1.421738e+01    1.916387e+03
  1.427050e+01    1.906432e+03
  1.432362e+01    1.908326e+03
  1.437674e+01    1.903746e+03
  1.442986e+01    1.891879e+03
  1.448297e+01    1.885343e+03
  1.453609e+01    1.878972e+03
  1.458921e+01    1.869926e+03
  1.464233e+01    1.864724e+03
  1.469545e+01    1.857541e+03
  1.474857e+01    1.837957e+03
  1.480168e+01    1.849579e+03
  1.485480e+01    1.843944e+03
  1.490792e+01    1.841384e+03
  1.496104e+01    1.830892e+03
  1.501416e+01    1.830725e+03
  1.506727e+01    1.826668e+03
  1.512039e+01    1.822820e+03
  1.517351e+01    1.836527e+03
  1.522663e+01    1.852883e+03
  1.527975e+01    1.847853e+03
  1.533286e+01    1.831415e+03
  1.538598e+01    1.821511e+03
  1.543910e+01    1.812949e+03
  1.549222e+01    1.811999e+03
  1.554534e+01    1.810534e+03
  1.559846e+01    1.807564e+03
  1.565157e+01    1.800425e+03
  1.570469e+01    1.794925e+03
  1.575781e+01    1.792041e+03
  1.581093e+01    1.787786e+03
  1.586405e+01    1.785757e+03
  1.591716e+01    1.780565e+03
  1.597028e+01    1.773904e+03
  1.602340e+01    1.758374e+03
  1.607652e+01    1.748158e+03
  1.612964e+01    1.724741e+03
  1.618276e+01    1.713429e+03
  1.623587e+01    1.715716e+03
  1.628899e+01    1.728986e+03
  1.634211e+01    1.727276e+03
  1.639523e+01    1.721504e+03
  1.644835e+01    1.723647e+03
  1.650146e+01    1.717227e+03
  1.655458e+01    1.716512e+03
  1.660770e+01    1.712147e+03
  1.666082e+01    1.706896e+03
  1.671394e+01    1.707344e+03
  1.676706e+01    1.702016e+03
  1.682017e+01    1.715276e+03
  1.687329e+01    1.705286e+03
  1.692641e+01    1.698400e+03
  1.697953e+01    1.694369e+03
  1.703265e+01    1.690382e+03
  1.708576e+01    1.689215e+03
  1.713888e+01    1.680719e+03
  1.719200e+01    1.679646e+03
  1.724512e+01    1.670365e+03
  1.729824e+01    1.671508e+03
  1.735136e+01    1.664975e+03
  1.740447e+01    1.643073e+03
  1.745759e+01    1.650176e+03
  1.751071e+01    1.651990e+03
  1.756383e+01    1.664207e+03
  1.761695e+01    1.646051e+03
  1.767006e+01    1.643378e+03
  1.772318e+01    1.633603e+03
  1.777630e+01    1.633871e+03
  1.782942e+01    1.625044e+03
  1.788254e+01    1.621239e+03
  1.793565e+01    1.618730e+03
  1.798877e+01    1.617157e+03
  1.804189e+01    1.609733e+03
  1.809501e+01    1.604984e+03
  1.814813e+01    1.602082e+03
  1.820125e+01    1.596458e+03
  1.825436e+01    1.601902e+03
  1.830748e+01    1.594727e+03
  1.836060e+01    1.589657e+03
  1.841372e+01    1.587525e+03
  1.846684e+01    1.582130e+03
  1.851995e+01    1.563137e+03
  1.857307e+01    1.548900e+03
  1.862619e+01    1.538074e+03
  1.867931e+01    1.535726e+03
  1.873243e+01    1.554545e+03
  1.878555e+01    1.555561e+03
  1.883866e+01    1.555500e+03
  1.889178e+01    1.555480e+03
  1.894490e+01    1.566282e+03
  1.899802e+01    1.556372e+03
  1.905114e+01    1.551854e+03
  1.910425e+01    1.546937e+03
  1.915737e+01    1.543053e+03
  1.921049e+01    1.538874e+03
  1.926361e+01    1.536107e+03
  1.931673e+01    1.532756e+03
  1.936985e+01    1.530960e+03
  1.942296e+01    1.527368e+03
  1.947608e+01    1.527628e+03
  1.952920e+01    1.523474e+03
  1.958232e+01    1.525187e+03
  1.963544e+01    1.529691e+03
  1.968855e+01    1.515654e+03
  1.974167e+01    1.504243e+03
  1.979479e+01    1.508503e+03
  1.984791e+01    1.507347e+03
  1.990103e+01    1.505582e+03
  1.995414e+01    1.503600e+03
  2.000726e+01    1.501708e+03
  2.006038e+01    1.495834e+03
  2.011350e+01    1.493590e+03
  2.016662e+01    1.486256e+03
  2.021974e+01    1.490781e+03
  2.027285e+01    1.496735e+03
  2.032597e+01    1.481300e+03
  2.037909e+01    1.476817e+03
  2.043221e+01    1.471996e+03
  2.048533e+01    1.469114e+03
  2.053844e+01    1.469958e+03
  2.059156e+01    1.462814e+03
  2.064468e+01    1.459854e+03
  2.069780e+01    1.440952e+03
  2.075092e+01    1.416008e+03
  2.080404e+01    1.402914e+03
  2.085715e+01    1.421917e+03
  2.091027e+01    1.446807e+03
  2.096339e+01    1.455785e+03
  2.101651e+01    1.459904e+03
  2.106963e+01    1.465264e+03
  2.112274e+01    1.466101e+03
  2.117586e+01    1.469042e+03
  2.122898e+01    1.471234e+03
  2.128210e+01    1.468967e+03
  2.133522e+01    1.468494e+03
  2.138834e+01    1.467455e+03
  2.144145e+01    1.466797e+03
  2.149457e+01    1.467208e+03
  2.154769e+01    1.465983e+03
  2.160081e+01    1.465321e+03
  2.165393e+01    1.466707e+03
  2.170704e+01    1.466108e+03
  2.176016e+01    1.456483e+03
  2.181328e+01    1.464482e+03
  2.186640e+01    1.466675e+03
  2.191952e+01    1.464701e+03
  2.197263e+01    1.461683e+03
  2.202575e+01    1.459927e+03
  2.207887e+01    1.459546e+03
  2.213199e+01    1.458186e+03
  2.218511e+01    1.456297e+03
  2.223823e+01    1.455838e+03
  2.229134e+01    1.454425e+03
  2.234446e+01    1.452922e+03
  2.239758e+01    1.453678e+03
  2.245070e+01    1.449836e+03
  2.250382e+01    1.451443e+03
  2.255693e+01    1.448162e+03
  2.261005e+01    1.430727e+03
  2.266317e+01    1.417678e+03
  2.271629e+01    1.408977e+03
  2.276941e+01    1.401179e+03
  2.282253e+01    1.392572e+03
  2.287564e+01    1.389029e+03
  2.292876e+01    1.383221e+03
  2.298188e+01    1.379804e+03
  2.303500e+01    1.378917e+03
  2.308812e+01    1.374863e+03
  2.314123e+01    1.372849e+03
  2.319435e+01    1.369414e+03
  2.324747e+01    1.361312e+03
  2.330059e+01    1.359808e+03
  2.335371e+01    1.355714e+03
  2.340683e+01    1.352546e+03
  2.345994e+01    1.347958e+03
  2.351306e+01    1.345923e+03
  2.356618e+01    1.340889e+03
  2.361930e+01    1.334893e+03
  2.367242e+01    1.330471e+03
  2.372553e+01    1.324234e+03
  2.377865e+01    1.320285e+03
  2.383177e+01    1.315616e+03
  2.388489e+01    1.309150e+03
  2.393801e+01    1.305709e+03
  2.399113e+01    1.304945e+03
  2.404424e+01    1.300744e+03
  2.409736e+01    1.300763e+03
  2.415048e+01    1.296054e+03
  2.420360e+01    1.295037e+03
  2.425672e+01    1.290225e+03
  2.430983e+01    1.288921e+03
  2.436295e+01    1.286260e+03
  2.441607e+01    1.284384e+03
  2.446919e+01    1.281382e+03
  2.452231e+01    1.281574e+03
  2.457542e+01    1.279629e+03
  2.462854e+01    1.275885e+03
  2.468166e+01    1.276610e+03
  2.473478e+01    1.269452e+03
  2.478790e+01    1.261752e+03
  2.484102e+01    1.262031e+03
  2.489413e+01    1.255534e+03
  2.494725e+01    1.249082e+03
  2.500037e+01    1.247257e+03
  2.505349e+01    1.240711e+03
  2.510661e+01    1.235339e+03
  2.515972e+01    1.234156e+03
  2.521284e+01    1.232263e+03
  2.526596e+01    1.231798e+03
  2.531908e+01    1.226695e+03
  2.537220e+01    1.224398e+03
  2.542532e+01    1.223972e+03
  2.547843e+01    1.220070e+03
  2.553155e+01    1.215683e+03
  2.558467e+01    1.208902e+03
  2.563779e+01    1.200254e+03
  2.569091e+01    1.196846e+03
  2.574402e+01    1.185136e+03
  2.579714e+01    1.179494e+03
  2.585026e+01    1.174411e+03
  2.590338e+01    1.166758e+03
  2.595650e+01    1.164769e+03
  2.600962e+01    1.163318e+03
  2.606273e+01    1.161189e+03
  2.611585e+01    1.161420e+03
  2.616897e+01    1.155800e+03
  2.622209e+01    1.156865e+03
  2.627521e+01    1.149894e+03
  2.632832e+01    1.148197e+03
  2.638144e+01    1.142650e+03
  2.643456e+01    1.139861e+03
  2.648768e+01    1.124158e+03
  2.654080e+01    1.094183e+03
