# == pyFAI calibration ==
# Distance Sample to Detector: 0.2946421923531691 m
# PONI: 2.875e-01, 2.439e-01 m
# Rotations: -0.010990 -0.009181 0.000003 rad
# 
# == Fit2d calibration ==
# Distance Sample-beamCenter: 294.672 mm
# Center: x=1436.809, y=1655.851 pix
# Tilt: 0.820 deg  TiltPlanRot: -39.874 deg
# 
# Detector Pilatus 2M	 PixelSize= 1.720e-04, 1.720e-04 m
#    Detector has a mask: True 
#    Detector has a dark current: False 
#    detector has a flat field: False 
# 
# Wavelength: 2.0732883349524408e-11 m
# Mask applied: from detector
# Dark current applied: False
# Flat field applied: False
# Polarization factor: None
# Normalization factor: 1.0
# --> /gpfs/current/raw/FMue_3/FMue_3_20231024_175355_00071.dat
#        q_A^-1             I 
  3.483473e-02             nan
  8.795289e-02             nan
  1.410711e-01             nan
  1.941892e-01             nan
  2.473074e-01             nan
  3.004255e-01             nan
  3.535437e-01             nan
  4.066619e-01    1.364169e+04
  4.597800e-01    1.247502e+04
  5.128982e-01    1.067817e+04
  5.660163e-01    9.727950e+03
  6.191345e-01    9.355968e+03
  6.722527e-01    9.181262e+03
  7.253708e-01    9.229826e+03
  7.784890e-01    9.401756e+03
  8.316071e-01    9.814709e+03
  8.847253e-01    1.034509e+04
  9.378435e-01    1.099189e+04
  9.909616e-01    1.153076e+04
  1.044080e+00    1.115894e+04
  1.097198e+00    1.049036e+04
  1.150316e+00    1.062603e+04
  1.203434e+00    1.129093e+04
  1.256552e+00    1.221322e+04
  1.309671e+00    1.284417e+04
  1.362789e+00    1.377346e+04
  1.415907e+00    1.443733e+04
  1.469025e+00    1.467371e+04
  1.522143e+00    1.459379e+04
  1.575261e+00    1.403410e+04
  1.628380e+00    1.332638e+04
  1.681498e+00    1.244537e+04
  1.734616e+00    1.154820e+04
  1.787734e+00    1.077686e+04
  1.840852e+00    1.013652e+04
  1.893970e+00    9.614231e+03
  1.947089e+00    9.466937e+03
  2.000207e+00    9.021727e+03
  2.053325e+00    8.315670e+03
  2.106443e+00    8.143674e+03
  2.159561e+00    8.330729e+03
  2.212679e+00    8.548749e+03
  2.265797e+00    8.848408e+03
  2.318916e+00    8.790964e+03
  2.372034e+00    8.541740e+03
  2.425152e+00    8.781185e+03
  2.478270e+00    8.995746e+03
  2.531388e+00    9.688065e+03
  2.584506e+00    1.009094e+04
  2.637625e+00    9.686710e+03
  2.690743e+00    9.031686e+03
  2.743861e+00    8.414829e+03
  2.796979e+00    7.255445e+03
  2.850097e+00    6.309565e+03
  2.903215e+00    5.962787e+03
  2.956334e+00    5.858379e+03
  3.009452e+00    5.950078e+03
  3.062570e+00    6.616600e+03
  3.115688e+00    8.493904e+03
  3.168806e+00    9.112727e+03
  3.221924e+00    7.837351e+03
  3.275043e+00    6.454350e+03
  3.328161e+00    5.851469e+03
  3.381279e+00    5.957763e+03
  3.434397e+00    5.551268e+03
  3.487515e+00    5.290417e+03
  3.540633e+00    5.213825e+03
  3.593751e+00    5.046430e+03
  3.646870e+00    5.023500e+03
  3.699988e+00    5.098957e+03
  3.753106e+00    5.245052e+03
  3.806224e+00    5.308530e+03
  3.859342e+00    5.327816e+03
  3.912460e+00    5.426384e+03
  3.965579e+00    5.628259e+03
  4.018697e+00    6.064559e+03
  4.071815e+00    6.736328e+03
  4.124933e+00    7.208653e+03
  4.178051e+00    7.177498e+03
  4.231169e+00    6.888097e+03
  4.284288e+00    6.862226e+03
  4.337406e+00    7.264400e+03
  4.390524e+00    7.978139e+03
  4.443642e+00    1.021800e+04
  4.496760e+00    1.223758e+04
  4.549878e+00    9.264173e+03
  4.602997e+00    6.248120e+03
  4.656115e+00    5.541974e+03
  4.709233e+00    5.445069e+03
  4.762351e+00    5.606032e+03
  4.815469e+00    5.559146e+03
  4.868587e+00    5.401436e+03
  4.921705e+00    5.352976e+03
  4.974824e+00    5.362525e+03
  5.027942e+00    5.317695e+03
  5.081060e+00    5.290441e+03
  5.134178e+00    5.185834e+03
  5.187296e+00    5.044733e+03
  5.240414e+00    4.841447e+03
  5.293533e+00    4.695119e+03
  5.346651e+00    4.538838e+03
  5.399769e+00    4.401929e+03
  5.452887e+00    4.399183e+03
  5.506005e+00    4.429796e+03
  5.559123e+00    4.090022e+03
  5.612242e+00    3.809719e+03
  5.665360e+00    3.711101e+03
  5.718478e+00    3.600079e+03
  5.771596e+00    3.521233e+03
  5.824714e+00    3.506791e+03
  5.877832e+00    3.553695e+03
  5.930951e+00    3.648623e+03
  5.984069e+00    3.760187e+03
  6.037187e+00    3.827697e+03
  6.090305e+00    3.815932e+03
  6.143423e+00    3.754100e+03
  6.196541e+00    3.824154e+03
  6.249660e+00    4.035821e+03
  6.302778e+00    4.095316e+03
  6.355896e+00    3.881412e+03
  6.409014e+00    3.745535e+03
  6.462132e+00    3.655766e+03
  6.515250e+00    3.555566e+03
  6.568368e+00    3.519468e+03
  6.621487e+00    3.484849e+03
  6.674605e+00    3.459339e+03
  6.727723e+00    3.482753e+03
  6.780841e+00    3.465110e+03
  6.833959e+00    3.410838e+03
  6.887077e+00    3.358878e+03
  6.940196e+00    3.313441e+03
  6.993314e+00    3.348581e+03
  7.046432e+00    3.403343e+03
  7.099550e+00    3.360053e+03
  7.152668e+00    3.293758e+03
  7.205786e+00    3.243121e+03
  7.258905e+00    3.175368e+03
  7.312023e+00    3.149253e+03
  7.365141e+00    3.149351e+03
  7.418259e+00    3.174048e+03
  7.471377e+00    3.204377e+03
  7.524495e+00    3.243144e+03
  7.577614e+00    3.273792e+03
  7.630732e+00    3.290795e+03
  7.683850e+00    3.417361e+03
  7.736968e+00    3.631160e+03
  7.790086e+00    3.630553e+03
  7.843204e+00    3.415411e+03
  7.896322e+00    3.194108e+03
  7.949441e+00    3.066782e+03
  8.002559e+00    3.022393e+03
  8.055677e+00    3.019159e+03
  8.108795e+00    3.035814e+03
  8.161913e+00    3.063850e+03
  8.215031e+00    3.049078e+03
  8.268150e+00    3.006050e+03
  8.321268e+00    2.966664e+03
  8.374386e+00    2.943144e+03
  8.427504e+00    2.931790e+03
  8.480622e+00    2.906793e+03
  8.533740e+00    2.843849e+03
  8.586859e+00    2.870946e+03
  8.639977e+00    2.865572e+03
  8.693095e+00    2.851784e+03
  8.746213e+00    2.840218e+03
  8.799331e+00    2.817796e+03
  8.852449e+00    2.803143e+03
  8.905568e+00    2.827122e+03
  8.958686e+00    2.841504e+03
  9.011804e+00    2.847369e+03
  9.064922e+00    2.777341e+03
  9.118040e+00    2.693107e+03
  9.171158e+00    2.655793e+03
  9.224276e+00    2.642768e+03
  9.277395e+00    2.618014e+03
  9.330513e+00    2.605994e+03
  9.383631e+00    2.607564e+03
  9.436749e+00    2.600116e+03
  9.489867e+00    2.602825e+03
  9.542985e+00    2.594677e+03
  9.596104e+00    2.565844e+03
  9.649222e+00    2.549294e+03
  9.702340e+00    2.539283e+03
  9.755458e+00    2.532810e+03
  9.808576e+00    2.525551e+03
  9.861694e+00    2.532932e+03
  9.914813e+00    2.540245e+03
  9.967931e+00    2.533874e+03
  1.002105e+01    2.492983e+03
  1.007417e+01    2.442871e+03
  1.012729e+01    2.411909e+03
  1.018040e+01    2.412064e+03
  1.023352e+01    2.404179e+03
  1.028664e+01    2.387205e+03
  1.033976e+01    2.376095e+03
  1.039288e+01    2.395800e+03
  1.044599e+01    2.385327e+03
  1.049911e+01    2.383310e+03
  1.055223e+01    2.360018e+03
  1.060535e+01    2.358044e+03
  1.065847e+01    2.350316e+03
  1.071158e+01    2.343321e+03
  1.076470e+01    2.336864e+03
  1.081782e+01    2.333307e+03
  1.087094e+01    2.319235e+03
  1.092406e+01    2.325288e+03
  1.097718e+01    2.322094e+03
  1.103029e+01    2.316935e+03
  1.108341e+01    2.305052e+03
  1.113653e+01    2.293751e+03
  1.118965e+01    2.282183e+03
  1.124277e+01    2.272355e+03
  1.129588e+01    2.268336e+03
  1.134900e+01    2.254307e+03
  1.140212e+01    2.248111e+03
  1.145524e+01    2.237857e+03
  1.150836e+01    2.239466e+03
  1.156148e+01    2.227862e+03
  1.161459e+01    2.230690e+03
  1.166771e+01    2.225010e+03
  1.172083e+01    2.240719e+03
  1.177395e+01    2.233638e+03
  1.182707e+01    2.228965e+03
  1.188018e+01    2.234599e+03
  1.193330e+01    2.216000e+03
  1.198642e+01    2.199890e+03
  1.203954e+01    2.181031e+03
  1.209266e+01    2.173120e+03
  1.214578e+01    2.163172e+03
  1.219889e+01    2.166046e+03
  1.225201e+01    2.163361e+03
  1.230513e+01    2.158396e+03
  1.235825e+01    2.165641e+03
  1.241137e+01    2.153307e+03
  1.246448e+01    2.153701e+03
  1.251760e+01    2.152691e+03
  1.257072e+01    2.148334e+03
  1.262384e+01    2.151551e+03
  1.267696e+01    2.137116e+03
  1.273008e+01    2.121684e+03
  1.278319e+01    2.112566e+03
  1.283631e+01    2.101397e+03
  1.288943e+01    2.098069e+03
  1.294255e+01    2.085061e+03
  1.299567e+01    2.075784e+03
  1.304878e+01    2.069899e+03
  1.310190e+01    2.063503e+03
  1.315502e+01    2.059796e+03
  1.320814e+01    2.031502e+03
  1.326126e+01    2.005369e+03
  1.331437e+01    1.991859e+03
  1.336749e+01    1.982604e+03
  1.342061e+01    1.970345e+03
  1.347373e+01    1.995858e+03
  1.352685e+01    2.000177e+03
  1.357997e+01    1.992515e+03
  1.363308e+01    1.980634e+03
  1.368620e+01    1.970098e+03
  1.373932e+01    1.961153e+03
  1.379244e+01    1.955339e+03
  1.384556e+01    1.951062e+03
  1.389867e+01    1.941119e+03
  1.395179e+01    1.935179e+03
  1.400491e+01    1.931814e+03
  1.405803e+01    1.929015e+03
  1.411115e+01    1.920393e+03
  1.416427e+01    1.912472e+03
  1.421738e+01    1.907903e+03
  1.427050e+01    1.902430e+03
  1.432362e+01    1.903472e+03
  1.437674e+01    1.899274e+03
  1.442986e+01    1.888755e+03
  1.448297e+01    1.881792e+03
  1.453609e+01    1.873959e+03
  1.458921e+01    1.866436e+03
  1.464233e+01    1.862800e+03
  1.469545e+01    1.856568e+03
  1.474857e+01    1.836044e+03
  1.480168e+01    1.848090e+03
  1.485480e+01    1.846543e+03
  1.490792e+01    1.841917e+03
  1.496104e+01    1.833818e+03
  1.501416e+01    1.833088e+03
  1.506727e+01    1.827681e+03
  1.512039e+01    1.824135e+03
  1.517351e+01    1.835657e+03
  1.522663e+01    1.849692e+03
  1.527975e+01    1.844487e+03
  1.533286e+01    1.828358e+03
  1.538598e+01    1.816600e+03
  1.543910e+01    1.809473e+03
  1.549222e+01    1.805829e+03
  1.554534e+01    1.806068e+03
  1.559846e+01    1.803908e+03
  1.565157e+01    1.798420e+03
  1.570469e+01    1.791173e+03
  1.575781e+01    1.787994e+03
  1.581093e+01    1.783483e+03
  1.586405e+01    1.782370e+03
  1.591716e+01    1.775900e+03
  1.597028e+01    1.770172e+03
  1.602340e+01    1.756013e+03
  1.607652e+01    1.744990e+03
  1.612964e+01    1.721326e+03
  1.618276e+01    1.711987e+03
  1.623587e+01    1.712540e+03
  1.628899e+01    1.729358e+03
  1.634211e+01    1.726276e+03
  1.639523e+01    1.721943e+03
  1.644835e+01    1.722783e+03
  1.650146e+01    1.716846e+03
  1.655458e+01    1.714279e+03
  1.660770e+01    1.708653e+03
  1.666082e+01    1.704293e+03
  1.671394e+01    1.705268e+03
  1.676706e+01    1.700503e+03
  1.682017e+01    1.712964e+03
  1.687329e+01    1.702532e+03
  1.692641e+01    1.696077e+03
  1.697953e+01    1.692550e+03
  1.703265e+01    1.686972e+03
  1.708576e+01    1.686123e+03
  1.713888e+01    1.677220e+03
  1.719200e+01    1.676175e+03
  1.724512e+01    1.669233e+03
  1.729824e+01    1.668414e+03
  1.735136e+01    1.663444e+03
  1.740447e+01    1.640689e+03
  1.745759e+01    1.649417e+03
  1.751071e+01    1.650204e+03
  1.756383e+01    1.660530e+03
  1.761695e+01    1.643484e+03
  1.767006e+01    1.641793e+03
  1.772318e+01    1.630373e+03
  1.777630e+01    1.629977e+03
  1.782942e+01    1.620811e+03
  1.788254e+01    1.617681e+03
  1.793565e+01    1.616344e+03
  1.798877e+01    1.612941e+03
  1.804189e+01    1.605559e+03
  1.809501e+01    1.602085e+03
  1.814813e+01    1.598914e+03
  1.820125e+01    1.594454e+03
  1.825436e+01    1.600292e+03
  1.830748e+01    1.593368e+03
  1.836060e+01    1.588865e+03
  1.841372e+01    1.585958e+03
  1.846684e+01    1.581760e+03
  1.851995e+01    1.561824e+03
  1.857307e+01    1.547979e+03
  1.862619e+01    1.537596e+03
  1.867931e+01    1.535396e+03
  1.873243e+01    1.554276e+03
  1.878555e+01    1.555845e+03
  1.883866e+01    1.553775e+03
  1.889178e+01    1.553524e+03
  1.894490e+01    1.565610e+03
  1.899802e+01    1.554971e+03
  1.905114e+01    1.551281e+03
  1.910425e+01    1.546431e+03
  1.915737e+01    1.541419e+03
  1.921049e+01    1.537206e+03
  1.926361e+01    1.534271e+03
  1.931673e+01    1.530136e+03
  1.936985e+01    1.528244e+03
  1.942296e+01    1.526602e+03
  1.947608e+01    1.526297e+03
  1.952920e+01    1.522264e+03
  1.958232e+01    1.524332e+03
  1.963544e+01    1.529070e+03
  1.968855e+01    1.513836e+03
  1.974167e+01    1.501139e+03
  1.979479e+01    1.506172e+03
  1.984791e+01    1.505366e+03
  1.990103e+01    1.503552e+03
  1.995414e+01    1.502584e+03
  2.000726e+01    1.499482e+03
  2.006038e+01    1.495117e+03
  2.011350e+01    1.490729e+03
  2.016662e+01    1.485221e+03
  2.021974e+01    1.488069e+03
  2.027285e+01    1.494215e+03
  2.032597e+01    1.478870e+03
  2.037909e+01    1.473825e+03
  2.043221e+01    1.470453e+03
  2.048533e+01    1.468818e+03
  2.053844e+01    1.467519e+03
  2.059156e+01    1.460876e+03
  2.064468e+01    1.458652e+03
  2.069780e+01    1.438527e+03
  2.075092e+01    1.414217e+03
  2.080404e+01    1.401058e+03
  2.085715e+01    1.420930e+03
  2.091027e+01    1.446494e+03
  2.096339e+01    1.453118e+03
  2.101651e+01    1.458284e+03
  2.106963e+01    1.461939e+03
  2.112274e+01    1.465509e+03
  2.117586e+01    1.467128e+03
  2.122898e+01    1.470626e+03
  2.128210e+01    1.468603e+03
  2.133522e+01    1.468605e+03
  2.138834e+01    1.466872e+03
  2.144145e+01    1.466442e+03
  2.149457e+01    1.466909e+03
  2.154769e+01    1.465251e+03
  2.160081e+01    1.464902e+03
  2.165393e+01    1.466091e+03
  2.170704e+01    1.465382e+03
  2.176016e+01    1.455394e+03
  2.181328e+01    1.464467e+03
  2.186640e+01    1.465936e+03
  2.191952e+01    1.463861e+03
  2.197263e+01    1.460402e+03
  2.202575e+01    1.458962e+03
  2.207887e+01    1.459116e+03
  2.213199e+01    1.456609e+03
  2.218511e+01    1.455213e+03
  2.223823e+01    1.454974e+03
  2.229134e+01    1.452850e+03
  2.234446e+01    1.450763e+03
  2.239758e+01    1.452261e+03
  2.245070e+01    1.450065e+03
  2.250382e+01    1.450942e+03
  2.255693e+01    1.447100e+03
  2.261005e+01    1.428356e+03
  2.266317e+01    1.416225e+03
  2.271629e+01    1.408378e+03
  2.276941e+01    1.399537e+03
  2.282253e+01    1.391821e+03
  2.287564e+01    1.386433e+03
  2.292876e+01    1.381223e+03
  2.298188e+01    1.379794e+03
  2.303500e+01    1.377696e+03
  2.308812e+01    1.373683e+03
  2.314123e+01    1.371280e+03
  2.319435e+01    1.366662e+03
  2.324747e+01    1.361223e+03
  2.330059e+01    1.357916e+03
  2.335371e+01    1.355920e+03
  2.340683e+01    1.351517e+03
  2.345994e+01    1.347012e+03
  2.351306e+01    1.345551e+03
  2.356618e+01    1.340316e+03
  2.361930e+01    1.334936e+03
  2.367242e+01    1.331175e+03
  2.372553e+01    1.324907e+03
  2.377865e+01    1.321331e+03
  2.383177e+01    1.314807e+03
  2.388489e+01    1.309697e+03
  2.393801e+01    1.304798e+03
  2.399113e+01    1.304090e+03
  2.404424e+01    1.303424e+03
  2.409736e+01    1.301675e+03
  2.415048e+01    1.296799e+03
  2.420360e+01    1.293437e+03
  2.425672e+01    1.290247e+03
  2.430983e+01    1.287162e+03
  2.436295e+01    1.284223e+03
  2.441607e+01    1.280228e+03
  2.446919e+01    1.280043e+03
  2.452231e+01    1.278992e+03
  2.457542e+01    1.276020e+03
  2.462854e+01    1.274079e+03
  2.468166e+01    1.273055e+03
  2.473478e+01    1.267807e+03
  2.478790e+01    1.261426e+03
  2.484102e+01    1.260192e+03
  2.489413e+01    1.253783e+03
  2.494725e+01    1.249579e+03
  2.500037e+01    1.244599e+03
  2.505349e+01    1.239422e+03
  2.510661e+01    1.236580e+03
  2.515972e+01    1.233019e+03
  2.521284e+01    1.233342e+03
  2.526596e+01    1.230605e+03
  2.531908e+01    1.225583e+03
  2.537220e+01    1.224538e+03
  2.542532e+01    1.221198e+03
  2.547843e+01    1.218985e+03
  2.553155e+01    1.212494e+03
  2.558467e+01    1.206685e+03
  2.563779e+01    1.198762e+03
  2.569091e+01    1.195111e+03
  2.574402e+01    1.182094e+03
  2.579714e+01    1.181215e+03
  2.585026e+01    1.168527e+03
  2.590338e+01    1.166175e+03
  2.595650e+01    1.162232e+03
  2.600962e+01    1.162162e+03
  2.606273e+01    1.164782e+03
  2.611585e+01    1.158177e+03
  2.616897e+01    1.160822e+03
  2.622209e+01    1.161614e+03
  2.627521e+01    1.154148e+03
  2.632832e+01    1.144705e+03
  2.638144e+01    1.142391e+03
  2.643456e+01    1.141219e+03
  2.648768e+01    1.117266e+03
  2.654080e+01    1.118536e+03
