# == pyFAI calibration ==
# Distance Sample to Detector: 0.2946421923531691 m
# PONI: 2.875e-01, 2.439e-01 m
# Rotations: -0.010990 -0.009181 0.000003 rad
# 
# == Fit2d calibration ==
# Distance Sample-beamCenter: 294.672 mm
# Center: x=1436.809, y=1655.851 pix
# Tilt: 0.820 deg  TiltPlanRot: -39.874 deg
# 
# Detector Pilatus 2M	 PixelSize= 1.720e-04, 1.720e-04 m
#    Detector has a mask: True 
#    Detector has a dark current: False 
#    detector has a flat field: False 
# 
# Wavelength: 2.0732883349524408e-11 m
# Mask applied: from detector
# Dark current applied: False
# Flat field applied: False
# Polarization factor: None
# Normalization factor: 1.0
# --> /gpfs/current/raw/FMue_3/FMue_3_20231024_175355_00118.dat
#        q_A^-1             I 
  3.483473e-02             nan
  8.795289e-02             nan
  1.410711e-01             nan
  1.941892e-01             nan
  2.473074e-01             nan
  3.004255e-01             nan
  3.535437e-01             nan
  4.066619e-01    1.311298e+04
  4.597800e-01    1.200903e+04
  5.128982e-01    1.016055e+04
  5.660163e-01    9.152215e+03
  6.191345e-01    8.716827e+03
  6.722527e-01    8.520570e+03
  7.253708e-01    8.515693e+03
  7.784890e-01    8.546354e+03
  8.316071e-01    8.707569e+03
  8.847253e-01    8.896607e+03
  9.378435e-01    9.323874e+03
  9.909616e-01    9.929916e+03
  1.044080e+00    1.004236e+04
  1.097198e+00    9.923846e+03
  1.150316e+00    1.033467e+04
  1.203434e+00    1.099687e+04
  1.256552e+00    1.187691e+04
  1.309671e+00    1.296925e+04
  1.362789e+00    1.403171e+04
  1.415907e+00    1.456469e+04
  1.469025e+00    1.463230e+04
  1.522143e+00    1.445110e+04
  1.575261e+00    1.384677e+04
  1.628380e+00    1.308748e+04
  1.681498e+00    1.215375e+04
  1.734616e+00    1.120362e+04
  1.787734e+00    1.035554e+04
  1.840852e+00    9.657464e+03
  1.893970e+00    9.164792e+03
  1.947089e+00    9.065258e+03
  2.000207e+00    8.790673e+03
  2.053325e+00    8.343161e+03
  2.106443e+00    8.456298e+03
  2.159561e+00    8.963033e+03
  2.212679e+00    9.239529e+03
  2.265797e+00    9.262306e+03
  2.318916e+00    8.764369e+03
  2.372034e+00    8.080228e+03
  2.425152e+00    8.318771e+03
  2.478270e+00    9.394240e+03
  2.531388e+00    1.139581e+04
  2.584506e+00    1.243763e+04
  2.637625e+00    1.105981e+04
  2.690743e+00    9.270221e+03
  2.743861e+00    8.111152e+03
  2.796979e+00    6.688683e+03
  2.850097e+00    5.713637e+03
  2.903215e+00    5.381896e+03
  2.956334e+00    5.319813e+03
  3.009452e+00    5.623363e+03
  3.062570e+00    6.830925e+03
  3.115688e+00    9.171003e+03
  3.168806e+00    9.401209e+03
  3.221924e+00    7.644256e+03
  3.275043e+00    6.102037e+03
  3.328161e+00    5.389800e+03
  3.381279e+00    5.340262e+03
  3.434397e+00    5.158481e+03
  3.487515e+00    4.959323e+03
  3.540633e+00    4.870037e+03
  3.593751e+00    4.738125e+03
  3.646870e+00    4.754625e+03
  3.699988e+00    4.904815e+03
  3.753106e+00    5.134766e+03
  3.806224e+00    5.299308e+03
  3.859342e+00    5.424311e+03
  3.912460e+00    5.678049e+03
  3.965579e+00    6.169098e+03
  4.018697e+00    6.792736e+03
  4.071815e+00    7.169368e+03
  4.124933e+00    6.964804e+03
  4.178051e+00    6.584214e+03
  4.231169e+00    6.409966e+03
  4.284288e+00    6.753660e+03
  4.337406e+00    7.957283e+03
  4.390524e+00    9.639908e+03
  4.443642e+00    1.187975e+04
  4.496760e+00    1.275244e+04
  4.549878e+00    9.067539e+03
  4.602997e+00    6.101437e+03
  4.656115e+00    5.399097e+03
  4.709233e+00    5.248527e+03
  4.762351e+00    5.311598e+03
  4.815469e+00    5.271792e+03
  4.868587e+00    5.223468e+03
  4.921705e+00    5.262088e+03
  4.974824e+00    5.360505e+03
  5.027942e+00    5.435877e+03
  5.081060e+00    5.538707e+03
  5.134178e+00    5.460794e+03
  5.187296e+00    5.204164e+03
  5.240414e+00    4.871997e+03
  5.293533e+00    4.644865e+03
  5.346651e+00    4.503428e+03
  5.399769e+00    4.410828e+03
  5.452887e+00    4.392847e+03
  5.506005e+00    4.335601e+03
  5.559123e+00    3.980951e+03
  5.612242e+00    3.732499e+03
  5.665360e+00    3.656574e+03
  5.718478e+00    3.584727e+03
  5.771596e+00    3.578668e+03
  5.824714e+00    3.646975e+03
  5.877832e+00    3.782380e+03
  5.930951e+00    3.958710e+03
  5.984069e+00    4.069169e+03
  6.037187e+00    4.029156e+03
  6.090305e+00    3.891209e+03
  6.143423e+00    3.789072e+03
  6.196541e+00    3.862024e+03
  6.249660e+00    4.039336e+03
  6.302778e+00    3.986723e+03
  6.355896e+00    3.709151e+03
  6.409014e+00    3.579766e+03
  6.462132e+00    3.511043e+03
  6.515250e+00    3.452824e+03
  6.568368e+00    3.467359e+03
  6.621487e+00    3.507971e+03
  6.674605e+00    3.568127e+03
  6.727723e+00    3.631916e+03
  6.780841e+00    3.599345e+03
  6.833959e+00    3.487387e+03
  6.887077e+00    3.373866e+03
  6.940196e+00    3.306437e+03
  6.993314e+00    3.341204e+03
  7.046432e+00    3.348784e+03
  7.099550e+00    3.267935e+03
  7.152668e+00    3.196178e+03
  7.205786e+00    3.139026e+03
  7.258905e+00    3.106909e+03
  7.312023e+00    3.139586e+03
  7.365141e+00    3.198708e+03
  7.418259e+00    3.259710e+03
  7.471377e+00    3.301074e+03
  7.524495e+00    3.360350e+03
  7.577614e+00    3.447103e+03
  7.630732e+00    3.518263e+03
  7.683850e+00    3.616408e+03
  7.736968e+00    3.723327e+03
  7.790086e+00    3.637345e+03
  7.843204e+00    3.421819e+03
  7.896322e+00    3.247902e+03
  7.949441e+00    3.167568e+03
  8.002559e+00    3.153979e+03
  8.055677e+00    3.153873e+03
  8.108795e+00    3.133225e+03
  8.161913e+00    3.099693e+03
  8.215031e+00    3.039436e+03
  8.268150e+00    2.976398e+03
  8.321268e+00    2.934457e+03
  8.374386e+00    2.914587e+03
  8.427504e+00    2.893105e+03
  8.480622e+00    2.870425e+03
  8.533740e+00    2.818958e+03
  8.586859e+00    2.852719e+03
  8.639977e+00    2.849892e+03
  8.693095e+00    2.843243e+03
  8.746213e+00    2.841860e+03
  8.799331e+00    2.831736e+03
  8.852449e+00    2.825443e+03
  8.905568e+00    2.836916e+03
  8.958686e+00    2.842324e+03
  9.011804e+00    2.839534e+03
  9.064922e+00    2.777616e+03
  9.118040e+00    2.724878e+03
  9.171158e+00    2.705605e+03
  9.224276e+00    2.688757e+03
  9.277395e+00    2.650095e+03
  9.330513e+00    2.627647e+03
  9.383631e+00    2.609079e+03
  9.436749e+00    2.595213e+03
  9.489867e+00    2.595884e+03
  9.542985e+00    2.593885e+03
  9.596104e+00    2.581802e+03
  9.649222e+00    2.581028e+03
  9.702340e+00    2.580321e+03
  9.755458e+00    2.575119e+03
  9.808576e+00    2.567774e+03
  9.861694e+00    2.573919e+03
  9.914813e+00    2.569306e+03
  9.967931e+00    2.552031e+03
  1.002105e+01    2.510102e+03
  1.007417e+01    2.472141e+03
  1.012729e+01    2.451568e+03
  1.018040e+01    2.446216e+03
  1.023352e+01    2.426549e+03
  1.028664e+01    2.393652e+03
  1.033976e+01    2.376479e+03
  1.039288e+01    2.390611e+03
  1.044599e+01    2.377696e+03
  1.049911e+01    2.374158e+03
  1.055223e+01    2.358136e+03
  1.060535e+01    2.360050e+03
  1.065847e+01    2.352312e+03
  1.071158e+01    2.344492e+03
  1.076470e+01    2.337082e+03
  1.081782e+01    2.334922e+03
  1.087094e+01    2.322207e+03
  1.092406e+01    2.328472e+03
  1.097718e+01    2.331759e+03
  1.103029e+01    2.332981e+03
  1.108341e+01    2.328958e+03
  1.113653e+01    2.316280e+03
  1.118965e+01    2.302099e+03
  1.124277e+01    2.287420e+03
  1.129588e+01    2.277041e+03
  1.134900e+01    2.267801e+03
  1.140212e+01    2.267862e+03
  1.145524e+01    2.263673e+03
  1.150836e+01    2.272453e+03
  1.156148e+01    2.269644e+03
  1.161459e+01    2.276258e+03
  1.166771e+01    2.269120e+03
  1.172083e+01    2.275012e+03
  1.177395e+01    2.255364e+03
  1.182707e+01    2.243493e+03
  1.188018e+01    2.243499e+03
  1.193330e+01    2.228945e+03
  1.198642e+01    2.209837e+03
  1.203954e+01    2.188319e+03
  1.209266e+01    2.178105e+03
  1.214578e+01    2.170379e+03
  1.219889e+01    2.170917e+03
  1.225201e+01    2.173889e+03
  1.230513e+01    2.169219e+03
  1.235825e+01    2.171759e+03
  1.241137e+01    2.156174e+03
  1.246448e+01    2.152293e+03
  1.251760e+01    2.148851e+03
  1.257072e+01    2.142577e+03
  1.262384e+01    2.147468e+03
  1.267696e+01    2.134131e+03
  1.273008e+01    2.120279e+03
  1.278319e+01    2.110969e+03
  1.283631e+01    2.100882e+03
  1.288943e+01    2.095802e+03
  1.294255e+01    2.084449e+03
  1.299567e+01    2.078741e+03
  1.304878e+01    2.073172e+03
  1.310190e+01    2.071334e+03
  1.315502e+01    2.066541e+03
  1.320814e+01    2.042284e+03
  1.326126e+01    2.018501e+03
  1.331437e+01    2.010293e+03
  1.336749e+01    2.003764e+03
  1.342061e+01    1.992216e+03
  1.347373e+01    2.016553e+03
  1.352685e+01    2.017889e+03
  1.357997e+01    2.006349e+03
  1.363308e+01    1.994155e+03
  1.368620e+01    1.983902e+03
  1.373932e+01    1.976007e+03
  1.379244e+01    1.969844e+03
  1.384556e+01    1.963916e+03
  1.389867e+01    1.954506e+03
  1.395179e+01    1.947538e+03
  1.400491e+01    1.943660e+03
  1.405803e+01    1.939521e+03
  1.411115e+01    1.933335e+03
  1.416427e+01    1.923139e+03
  1.421738e+01    1.920054e+03
  1.427050e+01    1.910732e+03
  1.432362e+01    1.912267e+03
  1.437674e+01    1.907230e+03
  1.442986e+01    1.895769e+03
  1.448297e+01    1.889040e+03
  1.453609e+01    1.882602e+03
  1.458921e+01    1.874065e+03
  1.464233e+01    1.869171e+03
  1.469545e+01    1.862457e+03
  1.474857e+01    1.842905e+03
  1.480168e+01    1.853303e+03
  1.485480e+01    1.849952e+03
  1.490792e+01    1.843939e+03
  1.496104e+01    1.838880e+03
  1.501416e+01    1.835693e+03
  1.506727e+01    1.830697e+03
  1.512039e+01    1.827328e+03
  1.517351e+01    1.839122e+03
  1.522663e+01    1.855643e+03
  1.527975e+01    1.850697e+03
  1.533286e+01    1.835503e+03
  1.538598e+01    1.825460e+03
  1.543910e+01    1.817802e+03
  1.549222e+01    1.814747e+03
  1.554534e+01    1.814733e+03
  1.559846e+01    1.812532e+03
  1.565157e+01    1.805124e+03
  1.570469e+01    1.797570e+03
  1.575781e+01    1.795210e+03
  1.581093e+01    1.792568e+03
  1.586405e+01    1.789970e+03
  1.591716e+01    1.784807e+03
  1.597028e+01    1.778647e+03
  1.602340e+01    1.762654e+03
  1.607652e+01    1.751719e+03
  1.612964e+01    1.727898e+03
  1.618276e+01    1.716632e+03
  1.623587e+01    1.719504e+03
  1.628899e+01    1.734490e+03
  1.634211e+01    1.733087e+03
  1.639523e+01    1.725828e+03
  1.644835e+01    1.727708e+03
  1.650146e+01    1.721906e+03
  1.655458e+01    1.720027e+03
  1.660770e+01    1.717439e+03
  1.666082e+01    1.711558e+03
  1.671394e+01    1.711095e+03
  1.676706e+01    1.706171e+03
  1.682017e+01    1.719995e+03
  1.687329e+01    1.709344e+03
  1.692641e+01    1.704051e+03
  1.697953e+01    1.698857e+03
  1.703265e+01    1.694791e+03
  1.708576e+01    1.693341e+03
  1.713888e+01    1.685366e+03
  1.719200e+01    1.685132e+03
  1.724512e+01    1.675891e+03
  1.729824e+01    1.676232e+03
  1.735136e+01    1.669506e+03
  1.740447e+01    1.647681e+03
  1.745759e+01    1.654776e+03
  1.751071e+01    1.658109e+03
  1.756383e+01    1.666854e+03
  1.761695e+01    1.649995e+03
  1.767006e+01    1.648700e+03
  1.772318e+01    1.639903e+03
  1.777630e+01    1.637912e+03
  1.782942e+01    1.630486e+03
  1.788254e+01    1.625649e+03
  1.793565e+01    1.623612e+03
  1.798877e+01    1.620609e+03
  1.804189e+01    1.613723e+03
  1.809501e+01    1.608473e+03
  1.814813e+01    1.606721e+03
  1.820125e+01    1.600345e+03
  1.825436e+01    1.606816e+03
  1.830748e+01    1.600270e+03
  1.836060e+01    1.593612e+03
  1.841372e+01    1.592295e+03
  1.846684e+01    1.586350e+03
  1.851995e+01    1.567290e+03
  1.857307e+01    1.554053e+03
  1.862619e+01    1.543660e+03
  1.867931e+01    1.539441e+03
  1.873243e+01    1.558242e+03
  1.878555e+01    1.560918e+03
  1.883866e+01    1.560418e+03
  1.889178e+01    1.558351e+03
  1.894490e+01    1.570835e+03
  1.899802e+01    1.560931e+03
  1.905114e+01    1.555420e+03
  1.910425e+01    1.550333e+03
  1.915737e+01    1.546613e+03
  1.921049e+01    1.543249e+03
  1.926361e+01    1.538694e+03
  1.931673e+01    1.535850e+03
  1.936985e+01    1.534312e+03
  1.942296e+01    1.531892e+03
  1.947608e+01    1.531304e+03
  1.952920e+01    1.527519e+03
  1.958232e+01    1.527574e+03
  1.963544e+01    1.533660e+03
  1.968855e+01    1.518288e+03
  1.974167e+01    1.507414e+03
  1.979479e+01    1.511279e+03
  1.984791e+01    1.510333e+03
  1.990103e+01    1.507813e+03
  1.995414e+01    1.505543e+03
  2.000726e+01    1.503579e+03
  2.006038e+01    1.500020e+03
  2.011350e+01    1.496030e+03
  2.016662e+01    1.489583e+03
  2.021974e+01    1.493256e+03
  2.027285e+01    1.498472e+03
  2.032597e+01    1.482833e+03
  2.037909e+01    1.478439e+03
  2.043221e+01    1.474331e+03
  2.048533e+01    1.471703e+03
  2.053844e+01    1.471577e+03
  2.059156e+01    1.465818e+03
  2.064468e+01    1.462699e+03
  2.069780e+01    1.442425e+03
  2.075092e+01    1.419173e+03
  2.080404e+01    1.405034e+03
  2.085715e+01    1.424587e+03
  2.091027e+01    1.449810e+03
  2.096339e+01    1.458024e+03
  2.101651e+01    1.462839e+03
  2.106963e+01    1.466430e+03
  2.112274e+01    1.470033e+03
  2.117586e+01    1.471290e+03
  2.122898e+01    1.474063e+03
  2.128210e+01    1.471509e+03
  2.133522e+01    1.471305e+03
  2.138834e+01    1.469659e+03
  2.144145e+01    1.469179e+03
  2.149457e+01    1.469751e+03
  2.154769e+01    1.469123e+03
  2.160081e+01    1.468120e+03
  2.165393e+01    1.468534e+03
  2.170704e+01    1.468452e+03
  2.176016e+01    1.457743e+03
  2.181328e+01    1.468884e+03
  2.186640e+01    1.468934e+03
  2.191952e+01    1.465911e+03
  2.197263e+01    1.466011e+03
  2.202575e+01    1.463722e+03
  2.207887e+01    1.461451e+03
  2.213199e+01    1.460648e+03
  2.218511e+01    1.459344e+03
  2.223823e+01    1.458600e+03
  2.229134e+01    1.456654e+03
  2.234446e+01    1.456622e+03
  2.239758e+01    1.456324e+03
  2.245070e+01    1.453018e+03
  2.250382e+01    1.453472e+03
  2.255693e+01    1.450758e+03
  2.261005e+01    1.432593e+03
  2.266317e+01    1.420356e+03
  2.271629e+01    1.412800e+03
  2.276941e+01    1.401867e+03
  2.282253e+01    1.396253e+03
  2.287564e+01    1.392060e+03
  2.292876e+01    1.385734e+03
  2.298188e+01    1.383613e+03
  2.303500e+01    1.380858e+03
  2.308812e+01    1.379017e+03
  2.314123e+01    1.376459e+03
  2.319435e+01    1.372414e+03
  2.324747e+01    1.365227e+03
  2.330059e+01    1.361666e+03
  2.335371e+01    1.359199e+03
  2.340683e+01    1.355347e+03
  2.345994e+01    1.352227e+03
  2.351306e+01    1.348310e+03
  2.356618e+01    1.344510e+03
  2.361930e+01    1.338242e+03
  2.367242e+01    1.333595e+03
  2.372553e+01    1.328590e+03
  2.377865e+01    1.323019e+03
  2.383177e+01    1.317387e+03
  2.388489e+01    1.311643e+03
  2.393801e+01    1.307500e+03
  2.399113e+01    1.308411e+03
  2.404424e+01    1.305596e+03
  2.409736e+01    1.305013e+03
  2.415048e+01    1.298024e+03
  2.420360e+01    1.296215e+03
  2.425672e+01    1.294739e+03
  2.430983e+01    1.291085e+03
  2.436295e+01    1.289565e+03
  2.441607e+01    1.286409e+03
  2.446919e+01    1.284257e+03
  2.452231e+01    1.284148e+03
  2.457542e+01    1.279709e+03
  2.462854e+01    1.278563e+03
  2.468166e+01    1.276825e+03
  2.473478e+01    1.270922e+03
  2.478790e+01    1.265817e+03
  2.484102e+01    1.262945e+03
  2.489413e+01    1.257730e+03
  2.494725e+01    1.253263e+03
  2.500037e+01    1.249643e+03
  2.505349e+01    1.243195e+03
  2.510661e+01    1.239755e+03
  2.515972e+01    1.237072e+03
  2.521284e+01    1.233937e+03
  2.526596e+01    1.235007e+03
  2.531908e+01    1.228481e+03
  2.537220e+01    1.229411e+03
  2.542532e+01    1.223776e+03
  2.547843e+01    1.221660e+03
  2.553155e+01    1.215990e+03
  2.558467e+01    1.211049e+03
  2.563779e+01    1.202916e+03
  2.569091e+01    1.197220e+03
  2.574402e+01    1.188333e+03
  2.579714e+01    1.182583e+03
  2.585026e+01    1.177133e+03
  2.590338e+01    1.169679e+03
  2.595650e+01    1.169080e+03
  2.600962e+01    1.163563e+03
  2.606273e+01    1.167041e+03
  2.611585e+01    1.165950e+03
  2.616897e+01    1.163476e+03
  2.622209e+01    1.159931e+03
  2.627521e+01    1.157313e+03
  2.632832e+01    1.145556e+03
  2.638144e+01    1.147951e+03
  2.643456e+01    1.148477e+03
  2.648768e+01    1.121338e+03
  2.654080e+01    1.104281e+03
