# == pyFAI calibration ==
# Distance Sample to Detector: 0.2946421923531691 m
# PONI: 2.875e-01, 2.439e-01 m
# Rotations: -0.010990 -0.009181 0.000003 rad
# 
# == Fit2d calibration ==
# Distance Sample-beamCenter: 294.672 mm
# Center: x=1436.809, y=1655.851 pix
# Tilt: 0.820 deg  TiltPlanRot: -39.874 deg
# 
# Detector Pilatus 2M	 PixelSize= 1.720e-04, 1.720e-04 m
#    Detector has a mask: True 
#    Detector has a dark current: False 
#    detector has a flat field: False 
# 
# Wavelength: 2.0732883349524408e-11 m
# Mask applied: from detector
# Dark current applied: False
# Flat field applied: False
# Polarization factor: None
# Normalization factor: 1.0
# --> /gpfs/current/raw/FMue_3/FMue_3_20231024_175355_00023.dat
#       2th_deg             I 
  6.762477e-02             nan
  1.715822e-01             nan
  2.755396e-01             nan
  3.794971e-01             nan
  4.834545e-01             nan
  5.874120e-01             nan
  6.913694e-01             nan
  7.953268e-01    9.674453e+03
  8.992843e-01    8.954503e+03
  1.003242e+00    8.106778e+03
  1.107199e+00    7.911715e+03
  1.211157e+00    7.965696e+03
  1.315114e+00    8.164246e+03
  1.419071e+00    9.020989e+03
  1.523029e+00    2.231322e+04
  1.626986e+00    2.409983e+04
  1.730944e+00    1.013198e+04
  1.834901e+00    9.699311e+03
  1.938859e+00    1.018668e+04
  2.042816e+00    9.944022e+03
  2.146774e+00    1.017921e+04
  2.250731e+00    1.081456e+04
  2.354688e+00    1.179969e+04
  2.458646e+00    1.280306e+04
  2.562603e+00    1.365639e+04
  2.666561e+00    1.443789e+04
  2.770518e+00    1.469436e+04
  2.874476e+00    1.467719e+04
  2.978433e+00    1.418860e+04
  3.082390e+00    1.643858e+04
  3.186348e+00    1.763730e+04
  3.290305e+00    1.214982e+04
  3.394263e+00    1.045571e+04
  3.498220e+00    9.703431e+03
  3.602178e+00    9.227793e+03
  3.706135e+00    9.144073e+03
  3.810093e+00    8.589905e+03
  3.914050e+00    7.965253e+03
  4.018007e+00    7.856891e+03
  4.121965e+00    8.069490e+03
  4.225922e+00    8.214916e+03
  4.329880e+00    8.428855e+03
  4.433837e+00    8.103868e+03
  4.537795e+00    1.168151e+04
  4.641752e+00    1.166352e+04
  4.745709e+00    8.071438e+03
  4.849667e+00    8.611516e+03
  4.953624e+00    8.993111e+03
  5.057582e+00    8.592700e+03
  5.161539e+00    1.222315e+04
  5.265497e+00    9.436155e+03
  5.369454e+00    6.051255e+03
  5.473412e+00    5.477788e+03
  5.577369e+00    5.280952e+03
  5.681326e+00    5.350787e+03
  5.785284e+00    6.139768e+03
  5.889241e+00    7.793835e+03
  5.993199e+00    8.884617e+03
  6.097156e+00    1.079729e+04
  6.201114e+00    9.495811e+03
  6.305071e+00    6.136845e+03
  6.409028e+00    5.920980e+03
  6.512986e+00    5.281249e+03
  6.616943e+00    5.060724e+03
  6.720901e+00    4.978898e+03
  6.824858e+00    5.382398e+03
  6.928816e+00    6.296880e+03
  7.032773e+00    5.180155e+03
  7.136731e+00    4.980918e+03
  7.240688e+00    5.418700e+03
  7.344645e+00    5.985486e+03
  7.448603e+00    5.257991e+03
  7.552560e+00    5.260214e+03
  7.656518e+00    6.224899e+03
  7.760475e+00    8.260518e+03
  7.864433e+00    8.450278e+03
  7.968390e+00    7.719341e+03
  8.072347e+00    6.269366e+03
  8.176305e+00    7.133683e+03
  8.280262e+00    7.532146e+03
  8.384220e+00    9.681254e+03
  8.488177e+00    1.184925e+04
  8.592135e+00    1.026297e+04
  8.696092e+00    6.558430e+03
  8.800050e+00    5.268853e+03
  8.904007e+00    5.314681e+03
  9.007964e+00    6.040003e+03
  9.111922e+00    5.742229e+03
  9.215879e+00    5.361568e+03
  9.319837e+00    5.800458e+03
  9.423794e+00    5.680579e+03
  9.527752e+00    5.913376e+03
  9.631709e+00    5.617583e+03
  9.735666e+00    5.177041e+03
  9.839624e+00    5.214137e+03
  9.943581e+00    5.270479e+03
  1.004754e+01    4.824439e+03
  1.015150e+01    4.436087e+03
  1.025545e+01    4.319779e+03
  1.035941e+01    4.569774e+03
  1.046337e+01    4.457170e+03
  1.056733e+01    3.954371e+03
  1.067128e+01    3.978411e+03
  1.077524e+01    3.691933e+03
  1.087920e+01    3.548210e+03
  1.098316e+01    3.666957e+03
  1.108711e+01    3.708432e+03
  1.119107e+01    3.663011e+03
  1.129503e+01    3.867050e+03
  1.139899e+01    3.803500e+03
  1.150294e+01    3.788296e+03
  1.160690e+01    3.762957e+03
  1.171086e+01    3.705501e+03
  1.181482e+01    4.096710e+03
  1.191877e+01    4.419845e+03
  1.202273e+01    4.018486e+03
  1.212669e+01    4.149187e+03
  1.223064e+01    4.057998e+03
  1.233460e+01    3.891580e+03
  1.243856e+01    3.700845e+03
  1.254252e+01    3.724001e+03
  1.264647e+01    3.656087e+03
  1.275043e+01    3.463098e+03
  1.285439e+01    3.404375e+03
  1.295835e+01    3.489731e+03
  1.306230e+01    3.381859e+03
  1.316626e+01    3.414779e+03
  1.327022e+01    3.439726e+03
  1.337418e+01    3.508506e+03
  1.347813e+01    3.776335e+03
  1.358209e+01    3.658812e+03
  1.368605e+01    3.422759e+03
  1.379001e+01    3.330760e+03
  1.389396e+01    3.196769e+03
  1.399792e+01    3.155889e+03
  1.410188e+01    3.120219e+03
  1.420584e+01    3.195032e+03
  1.430979e+01    3.267806e+03
  1.441375e+01    3.283454e+03
  1.451771e+01    3.416143e+03
  1.462167e+01    3.635852e+03
  1.472562e+01    3.751003e+03
  1.482958e+01    3.726621e+03
  1.493354e+01    3.439764e+03
  1.503750e+01    3.127866e+03
  1.514145e+01    3.034297e+03
  1.524541e+01    3.005125e+03
  1.534937e+01    3.015509e+03
  1.545333e+01    3.126488e+03
  1.555728e+01    3.311607e+03
  1.566124e+01    3.195407e+03
  1.576520e+01    3.035359e+03
  1.586916e+01    3.061094e+03
  1.597311e+01    3.013594e+03
  1.607707e+01    2.973176e+03
  1.618103e+01    3.015691e+03
  1.628498e+01    3.057633e+03
  1.638894e+01    3.044510e+03
  1.649290e+01    2.980403e+03
  1.659686e+01    2.952299e+03
  1.670081e+01    2.945115e+03
  1.680477e+01    2.897104e+03
  1.690873e+01    2.880464e+03
  1.701269e+01    2.949763e+03
  1.711664e+01    2.941305e+03
  1.722060e+01    2.864375e+03
  1.732456e+01    2.752739e+03
  1.742852e+01    2.766074e+03
  1.753247e+01    2.770620e+03
  1.763643e+01    2.717882e+03
  1.774039e+01    2.699873e+03
  1.784435e+01    2.686443e+03
  1.794830e+01    2.681528e+03
  1.805226e+01    2.697193e+03
  1.815622e+01    2.711691e+03
  1.826018e+01    2.699080e+03
  1.836413e+01    2.632427e+03
  1.846809e+01    2.647070e+03
  1.857205e+01    2.622420e+03
  1.867601e+01    2.594035e+03
  1.877996e+01    2.597460e+03
  1.888392e+01    2.611974e+03
  1.898788e+01    2.599814e+03
  1.909184e+01    2.579149e+03
  1.919579e+01    2.510936e+03
  1.929975e+01    2.487948e+03
  1.940371e+01    2.489809e+03
  1.950767e+01    2.478371e+03
  1.961162e+01    2.487510e+03
  1.971558e+01    2.508205e+03
  1.981954e+01    2.480619e+03
  1.992350e+01    2.484077e+03
  2.002745e+01    2.480474e+03
  2.013141e+01    2.461918e+03
  2.023537e+01    2.443054e+03
  2.033933e+01    2.434902e+03
  2.044328e+01    2.424399e+03
  2.054724e+01    2.444273e+03
  2.065120e+01    2.467186e+03
  2.075515e+01    2.447152e+03
  2.085911e+01    2.438115e+03
  2.096307e+01    2.400688e+03
  2.106703e+01    2.383211e+03
  2.117098e+01    2.378479e+03
  2.127494e+01    2.357703e+03
  2.137890e+01    2.350999e+03
  2.148286e+01    2.347201e+03
  2.158681e+01    2.341310e+03
  2.169077e+01    2.319942e+03
  2.179473e+01    2.295225e+03
  2.189869e+01    2.294369e+03
  2.200264e+01    2.309057e+03
  2.210660e+01    2.306463e+03
  2.221056e+01    2.300680e+03
  2.231452e+01    2.316354e+03
  2.241847e+01    2.299917e+03
  2.252243e+01    2.313363e+03
  2.262639e+01    2.319849e+03
  2.273035e+01    2.313815e+03
  2.283430e+01    2.292316e+03
  2.293826e+01    2.265184e+03
  2.304222e+01    2.257069e+03
  2.314618e+01    2.248100e+03
  2.325013e+01    2.250742e+03
  2.335409e+01    2.264578e+03
  2.345805e+01    2.276027e+03
  2.356201e+01    2.268391e+03
  2.366596e+01    2.255874e+03
  2.376992e+01    2.252571e+03
  2.387388e+01    2.255153e+03
  2.397784e+01    2.257237e+03
  2.408179e+01    2.250663e+03
  2.418575e+01    2.232605e+03
  2.428971e+01    2.220881e+03
  2.439367e+01    2.200432e+03
  2.449762e+01    2.188550e+03
  2.460158e+01    2.176884e+03
  2.470554e+01    2.166985e+03
  2.480949e+01    2.160273e+03
  2.491345e+01    2.155222e+03
  2.501741e+01    2.152592e+03
  2.512137e+01    2.149303e+03
  2.522532e+01    2.107100e+03
  2.532928e+01    2.085820e+03
  2.543324e+01    2.069405e+03
  2.553720e+01    2.054609e+03
  2.564115e+01    2.053847e+03
  2.574511e+01    2.082901e+03
  2.584907e+01    2.074228e+03
  2.595303e+01    2.068269e+03
  2.605698e+01    2.056381e+03
  2.616094e+01    2.041156e+03
  2.626490e+01    2.025684e+03
  2.636886e+01    2.018198e+03
  2.647281e+01    2.016608e+03
  2.657677e+01    2.013136e+03
  2.668073e+01    2.011676e+03
  2.678469e+01    2.004162e+03
  2.688864e+01    1.996279e+03
  2.699260e+01    1.988582e+03
  2.709656e+01    1.989217e+03
  2.720052e+01    1.982793e+03
  2.730447e+01    1.980012e+03
  2.740843e+01    1.991279e+03
  2.751239e+01    1.976877e+03
  2.761635e+01    1.967367e+03
  2.772030e+01    1.959253e+03
  2.782426e+01    1.947389e+03
  2.792822e+01    1.941709e+03
  2.803218e+01    1.936752e+03
  2.813613e+01    1.928057e+03
  2.824009e+01    1.929454e+03
  2.834405e+01    1.935036e+03
  2.844801e+01    1.926356e+03
  2.855196e+01    1.917208e+03
  2.865592e+01    1.910701e+03
  2.875988e+01    1.907319e+03
  2.886383e+01    1.902388e+03
  2.896779e+01    1.907136e+03
  2.907175e+01    1.923951e+03
  2.917571e+01    1.929198e+03
  2.927966e+01    1.910420e+03
  2.938362e+01    1.898334e+03
  2.948758e+01    1.886988e+03
  2.959154e+01    1.883012e+03
  2.969549e+01    1.884693e+03
  2.979945e+01    1.888381e+03
  2.990341e+01    1.880051e+03
  3.000737e+01    1.872439e+03
  3.011132e+01    1.866057e+03
  3.021528e+01    1.860144e+03
  3.031924e+01    1.858726e+03
  3.042320e+01    1.851918e+03
  3.052715e+01    1.846225e+03
  3.063111e+01    1.830713e+03
  3.073507e+01    1.822713e+03
  3.083903e+01    1.797488e+03
  3.094298e+01    1.784772e+03
  3.104694e+01    1.779600e+03
  3.115090e+01    1.799882e+03
  3.125486e+01    1.802211e+03
  3.135881e+01    1.798891e+03
  3.146277e+01    1.797661e+03
  3.156673e+01    1.793618e+03
  3.167069e+01    1.794525e+03
  3.177464e+01    1.792539e+03
  3.187860e+01    1.784098e+03
  3.198256e+01    1.778971e+03
  3.208652e+01    1.776353e+03
  3.219047e+01    1.786618e+03
  3.229443e+01    1.779944e+03
  3.239839e+01    1.774313e+03
  3.250235e+01    1.768608e+03
  3.260630e+01    1.765702e+03
  3.271026e+01    1.759965e+03
  3.281422e+01    1.757912e+03
  3.291817e+01    1.749783e+03
  3.302213e+01    1.746943e+03
  3.312609e+01    1.743248e+03
  3.323005e+01    1.739007e+03
  3.333400e+01    1.718796e+03
  3.343796e+01    1.721400e+03
  3.354192e+01    1.719687e+03
  3.364588e+01    1.733374e+03
  3.374983e+01    1.716462e+03
  3.385379e+01    1.715204e+03
  3.395775e+01    1.702515e+03
  3.406171e+01    1.704644e+03
  3.416566e+01    1.696556e+03
  3.426962e+01    1.692217e+03
  3.437358e+01    1.690463e+03
  3.447754e+01    1.683021e+03
  3.458149e+01    1.681531e+03
  3.468545e+01    1.677599e+03
  3.478941e+01    1.667902e+03
  3.489337e+01    1.669096e+03
  3.499732e+01    1.663152e+03
  3.510128e+01    1.674057e+03
  3.520524e+01    1.659454e+03
  3.530920e+01    1.658513e+03
  3.541315e+01    1.656117e+03
  3.551711e+01    1.648702e+03
  3.562107e+01    1.628839e+03
  3.572503e+01    1.610862e+03
  3.582898e+01    1.604460e+03
  3.593294e+01    1.613144e+03
  3.603690e+01    1.623340e+03
  3.614086e+01    1.624827e+03
  3.624481e+01    1.625773e+03
  3.634877e+01    1.624064e+03
  3.645273e+01    1.637956e+03
  3.655669e+01    1.626027e+03
  3.666064e+01    1.620245e+03
  3.676460e+01    1.612148e+03
  3.686856e+01    1.607699e+03
  3.697252e+01    1.605596e+03
  3.707647e+01    1.602497e+03
  3.718043e+01    1.599938e+03
  3.728439e+01    1.596500e+03
  3.738834e+01    1.593700e+03
  3.749230e+01    1.592721e+03
  3.759626e+01    1.589102e+03
  3.770022e+01    1.589847e+03
  3.780417e+01    1.596030e+03
  3.790813e+01    1.581260e+03
  3.801209e+01    1.566558e+03
  3.811605e+01    1.574447e+03
  3.822000e+01    1.571677e+03
  3.832396e+01    1.567183e+03
  3.842792e+01    1.567544e+03
  3.853188e+01    1.564984e+03
  3.863583e+01    1.560633e+03
  3.873979e+01    1.556518e+03
  3.884375e+01    1.553491e+03
  3.894771e+01    1.548728e+03
  3.905166e+01    1.563405e+03
  3.915562e+01    1.546808e+03
  3.925958e+01    1.540453e+03
  3.936354e+01    1.535434e+03
  3.946749e+01    1.533109e+03
  3.957145e+01    1.533615e+03
  3.967541e+01    1.529493e+03
  3.977937e+01    1.524980e+03
  3.988332e+01    1.517514e+03
  3.998728e+01    1.488647e+03
  4.009124e+01    1.470156e+03
  4.019520e+01    1.467253e+03
  4.029915e+01    1.496849e+03
  4.040311e+01    1.516665e+03
  4.050707e+01    1.520684e+03
  4.061103e+01    1.525125e+03
  4.071498e+01    1.528519e+03
  4.081894e+01    1.531477e+03
  4.092290e+01    1.532253e+03
  4.102686e+01    1.537347e+03
  4.113081e+01    1.533238e+03
  4.123477e+01    1.535094e+03
  4.133873e+01    1.530915e+03
  4.144268e+01    1.529844e+03
  4.154664e+01    1.534127e+03
  4.165060e+01    1.530422e+03
  4.175456e+01    1.530303e+03
  4.185851e+01    1.531838e+03
  4.196247e+01    1.529921e+03
  4.206643e+01    1.519252e+03
  4.217039e+01    1.529723e+03
  4.227434e+01    1.530514e+03
  4.237830e+01    1.530533e+03
  4.248226e+01    1.526153e+03
  4.258622e+01    1.525190e+03
  4.269017e+01    1.525175e+03
  4.279413e+01    1.522085e+03
  4.289809e+01    1.519808e+03
  4.300205e+01    1.520289e+03
  4.310600e+01    1.519203e+03
  4.320996e+01    1.517016e+03
  4.331392e+01    1.516370e+03
  4.341788e+01    1.513914e+03
  4.352183e+01    1.514690e+03
  4.362579e+01    1.513437e+03
  4.372975e+01    1.508548e+03
  4.383371e+01    1.488966e+03
  4.393766e+01    1.477315e+03
  4.404162e+01    1.468813e+03
  4.414558e+01    1.460171e+03
  4.424954e+01    1.453322e+03
  4.435349e+01    1.448893e+03
  4.445745e+01    1.444696e+03
  4.456141e+01    1.442933e+03
  4.466537e+01    1.438609e+03
  4.476932e+01    1.435995e+03
  4.487328e+01    1.435322e+03
  4.497724e+01    1.429506e+03
  4.508120e+01    1.425540e+03
  4.518515e+01    1.418589e+03
  4.528911e+01    1.419537e+03
  4.539307e+01    1.414060e+03
  4.549702e+01    1.409006e+03
  4.560098e+01    1.406859e+03
  4.570494e+01    1.402323e+03
  4.580890e+01    1.397859e+03
  4.591285e+01    1.394323e+03
  4.601681e+01    1.386970e+03
  4.612077e+01    1.381244e+03
  4.622473e+01    1.378514e+03
  4.632868e+01    1.373774e+03
  4.643264e+01    1.368515e+03
  4.653660e+01    1.363990e+03
  4.664056e+01    1.363008e+03
  4.674451e+01    1.361038e+03
  4.684847e+01    1.360155e+03
  4.695243e+01    1.356459e+03
  4.705639e+01    1.353656e+03
  4.716034e+01    1.348359e+03
  4.726430e+01    1.343234e+03
  4.736826e+01    1.341896e+03
  4.747222e+01    1.339942e+03
  4.757617e+01    1.338822e+03
  4.768013e+01    1.338583e+03
  4.778409e+01    1.336504e+03
  4.788805e+01    1.335383e+03
  4.799200e+01    1.332680e+03
  4.809596e+01    1.330182e+03
  4.819992e+01    1.325523e+03
  4.830388e+01    1.318220e+03
  4.840783e+01    1.316795e+03
  4.851179e+01    1.311729e+03
  4.861575e+01    1.307098e+03
  4.871971e+01    1.302182e+03
  4.882366e+01    1.300103e+03
  4.892762e+01    1.290576e+03
  4.903158e+01    1.288641e+03
  4.913554e+01    1.289229e+03
  4.923949e+01    1.289526e+03
  4.934345e+01    1.282398e+03
  4.944741e+01    1.282224e+03
  4.955136e+01    1.277373e+03
  4.965532e+01    1.274121e+03
  4.975928e+01    1.274178e+03
  4.986324e+01    1.265765e+03
  4.996719e+01    1.260895e+03
  5.007115e+01    1.254409e+03
  5.017511e+01    1.244466e+03
  5.027907e+01    1.241332e+03
  5.038302e+01    1.229269e+03
  5.048698e+01    1.221150e+03
  5.059094e+01    1.215432e+03
  5.069490e+01    1.216023e+03
  5.079885e+01    1.213626e+03
  5.090281e+01    1.209579e+03
  5.100677e+01    1.212746e+03
  5.111073e+01    1.210861e+03
  5.121468e+01    1.209322e+03
  5.131864e+01    1.206675e+03
  5.142260e+01    1.202084e+03
  5.152656e+01    1.194784e+03
  5.163051e+01    1.197424e+03
  5.173447e+01    1.179595e+03
  5.183843e+01    1.180859e+03
  5.194239e+01    1.147802e+03
