# == pyFAI calibration ==
# Distance Sample to Detector: 0.2946421923531691 m
# PONI: 2.875e-01, 2.439e-01 m
# Rotations: -0.010990 -0.009181 0.000003 rad
# 
# == Fit2d calibration ==
# Distance Sample-beamCenter: 294.672 mm
# Center: x=1436.809, y=1655.851 pix
# Tilt: 0.820 deg  TiltPlanRot: -39.874 deg
# 
# Detector Pilatus 2M	 PixelSize= 1.720e-04, 1.720e-04 m
#    Detector has a mask: True 
#    Detector has a dark current: False 
#    detector has a flat field: False 
# 
# Wavelength: 2.0732883349524408e-11 m
# Mask applied: from detector
# Dark current applied: False
# Flat field applied: False
# Polarization factor: None
# Normalization factor: 1.0
# --> /gpfs/current/raw/FMue_3/FMue_3_20231024_175355_00096.dat
#        q_A^-1             I 
  3.483473e-02             nan
  8.795289e-02             nan
  1.410711e-01             nan
  1.941892e-01             nan
  2.473074e-01             nan
  3.004255e-01             nan
  3.535437e-01             nan
  4.066619e-01    1.364474e+04
  4.597800e-01    1.242912e+04
  5.128982e-01    1.047186e+04
  5.660163e-01    9.363092e+03
  6.191345e-01    8.859467e+03
  6.722527e-01    8.609375e+03
  7.253708e-01    8.555926e+03
  7.784890e-01    8.547238e+03
  8.316071e-01    8.681692e+03
  8.847253e-01    8.853813e+03
  9.378435e-01    9.291794e+03
  9.909616e-01    1.002078e+04
  1.044080e+00    1.015738e+04
  1.097198e+00    9.956555e+03
  1.150316e+00    1.040115e+04
  1.203434e+00    1.133769e+04
  1.256552e+00    1.226102e+04
  1.309671e+00    1.301945e+04
  1.362789e+00    1.406617e+04
  1.415907e+00    1.460928e+04
  1.469025e+00    1.471861e+04
  1.522143e+00    1.455051e+04
  1.575261e+00    1.391138e+04
  1.628380e+00    1.316710e+04
  1.681498e+00    1.222052e+04
  1.734616e+00    1.125833e+04
  1.787734e+00    1.042072e+04
  1.840852e+00    9.723766e+03
  1.893970e+00    9.235744e+03
  1.947089e+00    9.180143e+03
  2.000207e+00    8.894192e+03
  2.053325e+00    8.383280e+03
  2.106443e+00    8.418645e+03
  2.159561e+00    8.832716e+03
  2.212679e+00    9.096933e+03
  2.265797e+00    9.213119e+03
  2.318916e+00    8.822160e+03
  2.372034e+00    8.155376e+03
  2.425152e+00    8.358586e+03
  2.478270e+00    9.276974e+03
  2.531388e+00    1.094185e+04
  2.584506e+00    1.187915e+04
  2.637625e+00    1.090287e+04
  2.690743e+00    9.406380e+03
  2.743861e+00    8.262686e+03
  2.796979e+00    6.811274e+03
  2.850097e+00    5.790037e+03
  2.903215e+00    5.444777e+03
  2.956334e+00    5.377022e+03
  3.009452e+00    5.661832e+03
  3.062570e+00    6.781830e+03
  3.115688e+00    9.097078e+03
  3.168806e+00    9.487139e+03
  3.221924e+00    7.778376e+03
  3.275043e+00    6.181570e+03
  3.328161e+00    5.512076e+03
  3.381279e+00    5.572967e+03
  3.434397e+00    5.252371e+03
  3.487515e+00    5.000521e+03
  3.540633e+00    4.914737e+03
  3.593751e+00    4.764841e+03
  3.646870e+00    4.771631e+03
  3.699988e+00    4.915329e+03
  3.753106e+00    5.139927e+03
  3.806224e+00    5.297502e+03
  3.859342e+00    5.412438e+03
  3.912460e+00    5.653662e+03
  3.965579e+00    6.050702e+03
  4.018697e+00    6.595331e+03
  4.071815e+00    7.037154e+03
  4.124933e+00    6.961126e+03
  4.178051e+00    6.641629e+03
  4.231169e+00    6.469283e+03
  4.284288e+00    6.788105e+03
  4.337406e+00    7.848357e+03
  4.390524e+00    9.349931e+03
  4.443642e+00    1.168766e+04
  4.496760e+00    1.291513e+04
  4.549878e+00    9.314479e+03
  4.602997e+00    6.187061e+03
  4.656115e+00    5.429478e+03
  4.709233e+00    5.272002e+03
  4.762351e+00    5.369762e+03
  4.815469e+00    5.326425e+03
  4.868587e+00    5.227259e+03
  4.921705e+00    5.252991e+03
  4.974824e+00    5.345865e+03
  5.027942e+00    5.394132e+03
  5.081060e+00    5.480247e+03
  5.134178e+00    5.425051e+03
  5.187296e+00    5.207370e+03
  5.240414e+00    4.898885e+03
  5.293533e+00    4.675661e+03
  5.346651e+00    4.534698e+03
  5.399769e+00    4.439453e+03
  5.452887e+00    4.420763e+03
  5.506005e+00    4.388465e+03
  5.559123e+00    4.027265e+03
  5.612242e+00    3.757866e+03
  5.665360e+00    3.672039e+03
  5.718478e+00    3.587856e+03
  5.771596e+00    3.562012e+03
  5.824714e+00    3.615604e+03
  5.877832e+00    3.736395e+03
  5.930951e+00    3.892162e+03
  5.984069e+00    4.014129e+03
  6.037187e+00    4.016099e+03
  6.090305e+00    3.912574e+03
  6.143423e+00    3.797965e+03
  6.196541e+00    3.850747e+03
  6.249660e+00    4.029889e+03
  6.302778e+00    4.009600e+03
  6.355896e+00    3.741731e+03
  6.409014e+00    3.601833e+03
  6.462132e+00    3.524822e+03
  6.515250e+00    3.458315e+03
  6.568368e+00    3.467022e+03
  6.621487e+00    3.493952e+03
  6.674605e+00    3.532922e+03
  6.727723e+00    3.601093e+03
  6.780841e+00    3.590432e+03
  6.833959e+00    3.495356e+03
  6.887077e+00    3.399444e+03
  6.940196e+00    3.330653e+03
  6.993314e+00    3.357099e+03
  7.046432e+00    3.379250e+03
  7.099550e+00    3.292862e+03
  7.152668e+00    3.209782e+03
  7.205786e+00    3.159719e+03
  7.258905e+00    3.120134e+03
  7.312023e+00    3.135931e+03
  7.365141e+00    3.184633e+03
  7.418259e+00    3.239496e+03
  7.471377e+00    3.290105e+03
  7.524495e+00    3.353727e+03
  7.577614e+00    3.434344e+03
  7.630732e+00    3.497033e+03
  7.683850e+00    3.609614e+03
  7.736968e+00    3.753436e+03
  7.790086e+00    3.685564e+03
  7.843204e+00    3.454157e+03
  7.896322e+00    3.256351e+03
  7.949441e+00    3.159140e+03
  8.002559e+00    3.134406e+03
  8.055677e+00    3.135830e+03
  8.108795e+00    3.129953e+03
  8.161913e+00    3.108190e+03
  8.215031e+00    3.050696e+03
  8.268150e+00    2.985293e+03
  8.321268e+00    2.938706e+03
  8.374386e+00    2.915569e+03
  8.427504e+00    2.896657e+03
  8.480622e+00    2.874315e+03
  8.533740e+00    2.819071e+03
  8.586859e+00    2.848786e+03
  8.639977e+00    2.848064e+03
  8.693095e+00    2.840667e+03
  8.746213e+00    2.839715e+03
  8.799331e+00    2.830014e+03
  8.852449e+00    2.824641e+03
  8.905568e+00    2.839884e+03
  8.958686e+00    2.850334e+03
  9.011804e+00    2.850552e+03
  9.064922e+00    2.787466e+03
  9.118040e+00    2.722046e+03
  9.171158e+00    2.697777e+03
  9.224276e+00    2.686145e+03
  9.277395e+00    2.652257e+03
  9.330513e+00    2.632075e+03
  9.383631e+00    2.618957e+03
  9.436749e+00    2.604188e+03
  9.489867e+00    2.607108e+03
  9.542985e+00    2.603313e+03
  9.596104e+00    2.581465e+03
  9.649222e+00    2.580964e+03
  9.702340e+00    2.579002e+03
  9.755458e+00    2.575059e+03
  9.808576e+00    2.567000e+03
  9.861694e+00    2.573821e+03
  9.914813e+00    2.576637e+03
  9.967931e+00    2.560677e+03
  1.002105e+01    2.516826e+03
  1.007417e+01    2.474793e+03
  1.012729e+01    2.448543e+03
  1.018040e+01    2.448383e+03
  1.023352e+01    2.432669e+03
  1.028664e+01    2.403167e+03
  1.033976e+01    2.384830e+03
  1.039288e+01    2.398332e+03
  1.044599e+01    2.384258e+03
  1.049911e+01    2.380387e+03
  1.055223e+01    2.361807e+03
  1.060535e+01    2.361693e+03
  1.065847e+01    2.353958e+03
  1.071158e+01    2.348728e+03
  1.076470e+01    2.339092e+03
  1.081782e+01    2.336741e+03
  1.087094e+01    2.324238e+03
  1.092406e+01    2.329023e+03
  1.097718e+01    2.333480e+03
  1.103029e+01    2.333076e+03
  1.108341e+01    2.330427e+03
  1.113653e+01    2.317776e+03
  1.118965e+01    2.302876e+03
  1.124277e+01    2.291076e+03
  1.129588e+01    2.284205e+03
  1.134900e+01    2.273953e+03
  1.140212e+01    2.269528e+03
  1.145524e+01    2.267043e+03
  1.150836e+01    2.272012e+03
  1.156148e+01    2.267554e+03
  1.161459e+01    2.275635e+03
  1.166771e+01    2.269919e+03
  1.172083e+01    2.278852e+03
  1.177395e+01    2.262516e+03
  1.182707e+01    2.251597e+03
  1.188018e+01    2.250136e+03
  1.193330e+01    2.232598e+03
  1.198642e+01    2.214792e+03
  1.203954e+01    2.193217e+03
  1.209266e+01    2.183394e+03
  1.214578e+01    2.172781e+03
  1.219889e+01    2.173645e+03
  1.225201e+01    2.173769e+03
  1.230513e+01    2.168830e+03
  1.235825e+01    2.171393e+03
  1.241137e+01    2.159549e+03
  1.246448e+01    2.156012e+03
  1.251760e+01    2.151460e+03
  1.257072e+01    2.146707e+03
  1.262384e+01    2.150238e+03
  1.267696e+01    2.136354e+03
  1.273008e+01    2.119925e+03
  1.278319e+01    2.113383e+03
  1.283631e+01    2.102527e+03
  1.288943e+01    2.098648e+03
  1.294255e+01    2.086485e+03
  1.299567e+01    2.082312e+03
  1.304878e+01    2.075634e+03
  1.310190e+01    2.071956e+03
  1.315502e+01    2.068906e+03
  1.320814e+01    2.047080e+03
  1.326126e+01    2.022293e+03
  1.331437e+01    2.012523e+03
  1.336749e+01    2.005656e+03
  1.342061e+01    1.994754e+03
  1.347373e+01    2.020610e+03
  1.352685e+01    2.023800e+03
  1.357997e+01    2.010842e+03
  1.363308e+01    1.998576e+03
  1.368620e+01    1.987904e+03
  1.373932e+01    1.978311e+03
  1.379244e+01    1.973614e+03
  1.384556e+01    1.966665e+03
  1.389867e+01    1.958630e+03
  1.395179e+01    1.951073e+03
  1.400491e+01    1.947708e+03
  1.405803e+01    1.944058e+03
  1.411115e+01    1.936230e+03
  1.416427e+01    1.927267e+03
  1.421738e+01    1.922470e+03
  1.427050e+01    1.914891e+03
  1.432362e+01    1.916510e+03
  1.437674e+01    1.913138e+03
  1.442986e+01    1.901344e+03
  1.448297e+01    1.891477e+03
  1.453609e+01    1.885527e+03
  1.458921e+01    1.876303e+03
  1.464233e+01    1.871695e+03
  1.469545e+01    1.865040e+03
  1.474857e+01    1.846343e+03
  1.480168e+01    1.856741e+03
  1.485480e+01    1.854014e+03
  1.490792e+01    1.848155e+03
  1.496104e+01    1.841096e+03
  1.501416e+01    1.838748e+03
  1.506727e+01    1.834291e+03
  1.512039e+01    1.830260e+03
  1.517351e+01    1.844158e+03
  1.522663e+01    1.857286e+03
  1.527975e+01    1.854433e+03
  1.533286e+01    1.838016e+03
  1.538598e+01    1.827738e+03
  1.543910e+01    1.820736e+03
  1.549222e+01    1.817220e+03
  1.554534e+01    1.817771e+03
  1.559846e+01    1.815382e+03
  1.565157e+01    1.807975e+03
  1.570469e+01    1.802535e+03
  1.575781e+01    1.799717e+03
  1.581093e+01    1.795923e+03
  1.586405e+01    1.794411e+03
  1.591716e+01    1.787948e+03
  1.597028e+01    1.781340e+03
  1.602340e+01    1.767799e+03
  1.607652e+01    1.755682e+03
  1.612964e+01    1.730854e+03
  1.618276e+01    1.719854e+03
  1.623587e+01    1.722340e+03
  1.628899e+01    1.737214e+03
  1.634211e+01    1.734830e+03
  1.639523e+01    1.729380e+03
  1.644835e+01    1.730376e+03
  1.650146e+01    1.725825e+03
  1.655458e+01    1.721995e+03
  1.660770e+01    1.718174e+03
  1.666082e+01    1.714000e+03
  1.671394e+01    1.714727e+03
  1.676706e+01    1.709383e+03
  1.682017e+01    1.722973e+03
  1.687329e+01    1.710874e+03
  1.692641e+01    1.704502e+03
  1.697953e+01    1.700576e+03
  1.703265e+01    1.696956e+03
  1.708576e+01    1.694957e+03
  1.713888e+01    1.688053e+03
  1.719200e+01    1.686370e+03
  1.724512e+01    1.679594e+03
  1.729824e+01    1.678821e+03
  1.735136e+01    1.672330e+03
  1.740447e+01    1.649466e+03
  1.745759e+01    1.656719e+03
  1.751071e+01    1.659122e+03
  1.756383e+01    1.668340e+03
  1.761695e+01    1.652967e+03
  1.767006e+01    1.650652e+03
  1.772318e+01    1.641032e+03
  1.777630e+01    1.640435e+03
  1.782942e+01    1.632058e+03
  1.788254e+01    1.628716e+03
  1.793565e+01    1.624730e+03
  1.798877e+01    1.622892e+03
  1.804189e+01    1.615679e+03
  1.809501e+01    1.610105e+03
  1.814813e+01    1.608834e+03
  1.820125e+01    1.603459e+03
  1.825436e+01    1.608624e+03
  1.830748e+01    1.601757e+03
  1.836060e+01    1.598265e+03
  1.841372e+01    1.594593e+03
  1.846684e+01    1.590133e+03
  1.851995e+01    1.569882e+03
  1.857307e+01    1.555479e+03
  1.862619e+01    1.545397e+03
  1.867931e+01    1.541470e+03
  1.873243e+01    1.560881e+03
  1.878555e+01    1.563637e+03
  1.883866e+01    1.562046e+03
  1.889178e+01    1.561723e+03
  1.894490e+01    1.572740e+03
  1.899802e+01    1.562453e+03
  1.905114e+01    1.559422e+03
  1.910425e+01    1.553513e+03
  1.915737e+01    1.549212e+03
  1.921049e+01    1.544266e+03
  1.926361e+01    1.540512e+03
  1.931673e+01    1.538960e+03
  1.936985e+01    1.537781e+03
  1.942296e+01    1.532970e+03
  1.947608e+01    1.534752e+03
  1.952920e+01    1.530451e+03
  1.958232e+01    1.529313e+03
  1.963544e+01    1.535398e+03
  1.968855e+01    1.520999e+03
  1.974167e+01    1.509570e+03
  1.979479e+01    1.513901e+03
  1.984791e+01    1.513245e+03
  1.990103e+01    1.512006e+03
  1.995414e+01    1.508851e+03
  2.000726e+01    1.507972e+03
  2.006038e+01    1.502806e+03
  2.011350e+01    1.498767e+03
  2.016662e+01    1.493141e+03
  2.021974e+01    1.496925e+03
  2.027285e+01    1.502311e+03
  2.032597e+01    1.485225e+03
  2.037909e+01    1.482034e+03
  2.043221e+01    1.478111e+03
  2.048533e+01    1.475178e+03
  2.053844e+01    1.475940e+03
  2.059156e+01    1.467776e+03
  2.064468e+01    1.466305e+03
  2.069780e+01    1.446466e+03
  2.075092e+01    1.422167e+03
  2.080404e+01    1.408457e+03
  2.085715e+01    1.426416e+03
  2.091027e+01    1.453180e+03
  2.096339e+01    1.461170e+03
  2.101651e+01    1.465371e+03
  2.106963e+01    1.469977e+03
  2.112274e+01    1.473485e+03
  2.117586e+01    1.472971e+03
  2.122898e+01    1.476563e+03
  2.128210e+01    1.474002e+03
  2.133522e+01    1.475025e+03
  2.138834e+01    1.472753e+03
  2.144145e+01    1.473272e+03
  2.149457e+01    1.473546e+03
  2.154769e+01    1.472190e+03
  2.160081e+01    1.469321e+03
  2.165393e+01    1.470869e+03
  2.170704e+01    1.472598e+03
  2.176016e+01    1.461200e+03
  2.181328e+01    1.470892e+03
  2.186640e+01    1.472256e+03
  2.191952e+01    1.469764e+03
  2.197263e+01    1.467872e+03
  2.202575e+01    1.466052e+03
  2.207887e+01    1.464154e+03
  2.213199e+01    1.463191e+03
  2.218511e+01    1.461666e+03
  2.223823e+01    1.462332e+03
  2.229134e+01    1.460261e+03
  2.234446e+01    1.458431e+03
  2.239758e+01    1.458798e+03
  2.245070e+01    1.455848e+03
  2.250382e+01    1.456122e+03
  2.255693e+01    1.454793e+03
  2.261005e+01    1.435929e+03
  2.266317e+01    1.422515e+03
  2.271629e+01    1.415778e+03
  2.276941e+01    1.404765e+03
  2.282253e+01    1.396748e+03
  2.287564e+01    1.395016e+03
  2.292876e+01    1.389929e+03
  2.298188e+01    1.386659e+03
  2.303500e+01    1.384395e+03
  2.308812e+01    1.380651e+03
  2.314123e+01    1.379623e+03
  2.319435e+01    1.373859e+03
  2.324747e+01    1.368149e+03
  2.330059e+01    1.364033e+03
  2.335371e+01    1.361814e+03
  2.340683e+01    1.357118e+03
  2.345994e+01    1.353697e+03
  2.351306e+01    1.351579e+03
  2.356618e+01    1.347488e+03
  2.361930e+01    1.342318e+03
  2.367242e+01    1.335398e+03
  2.372553e+01    1.331014e+03
  2.377865e+01    1.326451e+03
  2.383177e+01    1.321019e+03
  2.388489e+01    1.315477e+03
  2.393801e+01    1.311250e+03
  2.399113e+01    1.310660e+03
  2.404424e+01    1.307065e+03
  2.409736e+01    1.307632e+03
  2.415048e+01    1.302377e+03
  2.420360e+01    1.298933e+03
  2.425672e+01    1.295982e+03
  2.430983e+01    1.293417e+03
  2.436295e+01    1.291582e+03
  2.441607e+01    1.287536e+03
  2.446919e+01    1.287237e+03
  2.452231e+01    1.286685e+03
  2.457542e+01    1.283650e+03
  2.462854e+01    1.279786e+03
  2.468166e+01    1.279345e+03
  2.473478e+01    1.275953e+03
  2.478790e+01    1.267883e+03
  2.484102e+01    1.263699e+03
  2.489413e+01    1.259094e+03
  2.494725e+01    1.256850e+03
  2.500037e+01    1.250173e+03
  2.505349e+01    1.245962e+03
  2.510661e+01    1.240897e+03
  2.515972e+01    1.240610e+03
  2.521284e+01    1.235934e+03
  2.526596e+01    1.235541e+03
  2.531908e+01    1.229608e+03
  2.537220e+01    1.231163e+03
  2.542532e+01    1.226852e+03
  2.547843e+01    1.224645e+03
  2.553155e+01    1.221744e+03
  2.558467e+01    1.213673e+03
  2.563779e+01    1.202871e+03
  2.569091e+01    1.199379e+03
  2.574402e+01    1.189479e+03
  2.579714e+01    1.183864e+03
  2.585026e+01    1.180524e+03
  2.590338e+01    1.169871e+03
  2.595650e+01    1.172490e+03
  2.600962e+01    1.169413e+03
  2.606273e+01    1.166897e+03
  2.611585e+01    1.166539e+03
  2.616897e+01    1.163519e+03
  2.622209e+01    1.161522e+03
  2.627521e+01    1.157791e+03
  2.632832e+01    1.152141e+03
  2.638144e+01    1.150049e+03
  2.643456e+01    1.148225e+03
  2.648768e+01    1.134076e+03
  2.654080e+01    1.112596e+03
