# == pyFAI calibration ==
# Distance Sample to Detector: 0.2946421923531691 m
# PONI: 2.875e-01, 2.439e-01 m
# Rotations: -0.010990 -0.009181 0.000003 rad
# 
# == Fit2d calibration ==
# Distance Sample-beamCenter: 294.672 mm
# Center: x=1436.809, y=1655.851 pix
# Tilt: 0.820 deg  TiltPlanRot: -39.874 deg
# 
# Detector Pilatus 2M	 PixelSize= 1.720e-04, 1.720e-04 m
#    Detector has a mask: True 
#    Detector has a dark current: False 
#    detector has a flat field: False 
# 
# Wavelength: 2.0732883349524408e-11 m
# Mask applied: from detector
# Dark current applied: False
# Flat field applied: False
# Polarization factor: None
# Normalization factor: 1.0
# --> /gpfs/current/raw/FMue_3/FMue_3_20231024_175355_00187.dat
#        q_A^-1             I 
  3.483473e-02             nan
  8.795289e-02             nan
  1.410711e-01             nan
  1.941892e-01             nan
  2.473074e-01             nan
  3.004255e-01             nan
  3.535437e-01             nan
  4.066619e-01    1.134310e+04
  4.597800e-01    1.043879e+04
  5.128982e-01    8.898200e+03
  5.660163e-01    8.122850e+03
  6.191345e-01    7.844624e+03
  6.722527e-01    7.750667e+03
  7.253708e-01    7.808571e+03
  7.784890e-01    7.871804e+03
  8.316071e-01    8.013493e+03
  8.847253e-01    8.138387e+03
  9.378435e-01    8.326283e+03
  9.909616e-01    8.547206e+03
  1.044080e+00    8.863243e+03
  1.097198e+00    9.292950e+03
  1.150316e+00    9.897021e+03
  1.203434e+00    1.060015e+04
  1.256552e+00    1.148764e+04
  1.309671e+00    1.265145e+04
  1.362789e+00    1.374264e+04
  1.415907e+00    1.418659e+04
  1.469025e+00    1.429751e+04
  1.522143e+00    1.416594e+04
  1.575261e+00    1.358213e+04
  1.628380e+00    1.284843e+04
  1.681498e+00    1.192782e+04
  1.734616e+00    1.097415e+04
  1.787734e+00    1.014866e+04
  1.840852e+00    9.439891e+03
  1.893970e+00    8.846533e+03
  1.947089e+00    8.439014e+03
  2.000207e+00    8.135137e+03
  2.053325e+00    8.036057e+03
  2.106443e+00    8.500836e+03
  2.159561e+00    9.578823e+03
  2.212679e+00    9.851386e+03
  2.265797e+00    9.301592e+03
  2.318916e+00    8.540521e+03
  2.372034e+00    7.826116e+03
  2.425152e+00    8.065698e+03
  2.478270e+00    9.512781e+03
  2.531388e+00    1.295134e+04
  2.584506e+00    1.401209e+04
  2.637625e+00    1.067331e+04
  2.690743e+00    8.460984e+03
  2.743861e+00    7.631572e+03
  2.796979e+00    6.383229e+03
  2.850097e+00    5.494147e+03
  2.903215e+00    5.189921e+03
  2.956334e+00    5.130711e+03
  3.009452e+00    5.471073e+03
  3.062570e+00    6.971513e+03
  3.115688e+00    9.249000e+03
  3.168806e+00    8.989521e+03
  3.221924e+00    7.239187e+03
  3.275043e+00    5.718254e+03
  3.328161e+00    4.869547e+03
  3.381279e+00    4.646148e+03
  3.434397e+00    4.652554e+03
  3.487515e+00    4.737128e+03
  3.540633e+00    4.660243e+03
  3.593751e+00    4.574470e+03
  3.646870e+00    4.639642e+03
  3.699988e+00    4.806068e+03
  3.753106e+00    5.128141e+03
  3.806224e+00    5.372622e+03
  3.859342e+00    5.373184e+03
  3.912460e+00    5.613615e+03
  3.965579e+00    6.467476e+03
  4.018697e+00    7.452246e+03
  4.071815e+00    7.426180e+03
  4.124933e+00    6.779868e+03
  4.178051e+00    6.341369e+03
  4.231169e+00    6.184487e+03
  4.284288e+00    6.571516e+03
  4.337406e+00    8.253093e+03
  4.390524e+00    1.046039e+04
  4.443642e+00    1.196800e+04
  4.496760e+00    1.214850e+04
  4.549878e+00    8.488776e+03
  4.602997e+00    5.881607e+03
  4.656115e+00    5.255812e+03
  4.709233e+00    5.055469e+03
  4.762351e+00    5.006635e+03
  4.815469e+00    5.062524e+03
  4.868587e+00    5.196252e+03
  4.921705e+00    5.262787e+03
  4.974824e+00    5.347250e+03
  5.027942e+00    5.498684e+03
  5.081060e+00    5.695145e+03
  5.134178e+00    5.493210e+03
  5.187296e+00    5.039956e+03
  5.240414e+00    4.655006e+03
  5.293533e+00    4.455760e+03
  5.346651e+00    4.370552e+03
  5.399769e+00    4.289486e+03
  5.452887e+00    4.251544e+03
  5.506005e+00    4.131958e+03
  5.559123e+00    3.778446e+03
  5.612242e+00    3.603319e+03
  5.665360e+00    3.563245e+03
  5.718478e+00    3.555945e+03
  5.771596e+00    3.615354e+03
  5.824714e+00    3.701740e+03
  5.877832e+00    3.875561e+03
  5.930951e+00    4.150545e+03
  5.984069e+00    4.172100e+03
  6.037187e+00    3.947500e+03
  6.090305e+00    3.772713e+03
  6.143423e+00    3.744598e+03
  6.196541e+00    3.893737e+03
  6.249660e+00    4.010984e+03
  6.302778e+00    3.878732e+03
  6.355896e+00    3.616347e+03
  6.409014e+00    3.520392e+03
  6.462132e+00    3.456330e+03
  6.515250e+00    3.415002e+03
  6.568368e+00    3.446408e+03
  6.621487e+00    3.513529e+03
  6.674605e+00    3.635661e+03
  6.727723e+00    3.685670e+03
  6.780841e+00    3.516600e+03
  6.833959e+00    3.327707e+03
  6.887077e+00    3.239795e+03
  6.940196e+00    3.213717e+03
  6.993314e+00    3.237076e+03
  7.046432e+00    3.237593e+03
  7.099550e+00    3.165973e+03
  7.152668e+00    3.107952e+03
  7.205786e+00    3.062234e+03
  7.258905e+00    3.054506e+03
  7.312023e+00    3.121744e+03
  7.365141e+00    3.221045e+03
  7.418259e+00    3.260974e+03
  7.471377e+00    3.258732e+03
  7.524495e+00    3.332630e+03
  7.577614e+00    3.479760e+03
  7.630732e+00    3.502236e+03
  7.683850e+00    3.521178e+03
  7.736968e+00    3.591713e+03
  7.790086e+00    3.495370e+03
  7.843204e+00    3.323622e+03
  7.896322e+00    3.206185e+03
  7.949441e+00    3.170693e+03
  8.002559e+00    3.184152e+03
  8.055677e+00    3.141583e+03
  8.108795e+00    3.063134e+03
  8.161913e+00    3.013191e+03
  8.215031e+00    2.966999e+03
  8.268150e+00    2.925048e+03
  8.321268e+00    2.889154e+03
  8.374386e+00    2.866479e+03
  8.427504e+00    2.851496e+03
  8.480622e+00    2.843187e+03
  8.533740e+00    2.801580e+03
  8.586859e+00    2.835984e+03
  8.639977e+00    2.821034e+03
  8.693095e+00    2.808135e+03
  8.746213e+00    2.818204e+03
  8.799331e+00    2.805726e+03
  8.852449e+00    2.782113e+03
  8.905568e+00    2.782901e+03
  8.958686e+00    2.784603e+03
  9.011804e+00    2.779412e+03
  9.064922e+00    2.735844e+03
  9.118040e+00    2.710193e+03
  9.171158e+00    2.684235e+03
  9.224276e+00    2.643017e+03
  9.277395e+00    2.593085e+03
  9.330513e+00    2.561971e+03
  9.383631e+00    2.537810e+03
  9.436749e+00    2.526429e+03
  9.489867e+00    2.542209e+03
  9.542985e+00    2.552974e+03
  9.596104e+00    2.553402e+03
  9.649222e+00    2.561339e+03
  9.702340e+00    2.551152e+03
  9.755458e+00    2.536312e+03
  9.808576e+00    2.530392e+03
  9.861694e+00    2.526492e+03
  9.914813e+00    2.510090e+03
  9.967931e+00    2.490936e+03
  1.002105e+01    2.463686e+03
  1.007417e+01    2.445177e+03
  1.012729e+01    2.427959e+03
  1.018040e+01    2.407127e+03
  1.023352e+01    2.370717e+03
  1.028664e+01    2.336008e+03
  1.033976e+01    2.318903e+03
  1.039288e+01    2.340172e+03
  1.044599e+01    2.331958e+03
  1.049911e+01    2.334372e+03
  1.055223e+01    2.325912e+03
  1.060535e+01    2.327965e+03
  1.065847e+01    2.314605e+03
  1.071158e+01    2.304434e+03
  1.076470e+01    2.294249e+03
  1.081782e+01    2.292417e+03
  1.087094e+01    2.282826e+03
  1.092406e+01    2.297365e+03
  1.097718e+01    2.304353e+03
  1.103029e+01    2.304770e+03
  1.108341e+01    2.288765e+03
  1.113653e+01    2.270159e+03
  1.118965e+01    2.248555e+03
  1.124277e+01    2.236729e+03
  1.129588e+01    2.232170e+03
  1.134900e+01    2.225813e+03
  1.140212e+01    2.235346e+03
  1.145524e+01    2.237475e+03
  1.150836e+01    2.247659e+03
  1.156148e+01    2.242207e+03
  1.161459e+01    2.244255e+03
  1.166771e+01    2.224836e+03
  1.172083e+01    2.223266e+03
  1.177395e+01    2.204426e+03
  1.182707e+01    2.197281e+03
  1.188018e+01    2.201013e+03
  1.193330e+01    2.185098e+03
  1.198642e+01    2.166079e+03
  1.203954e+01    2.147651e+03
  1.209266e+01    2.143264e+03
  1.214578e+01    2.135810e+03
  1.219889e+01    2.143704e+03
  1.225201e+01    2.146422e+03
  1.230513e+01    2.137457e+03
  1.235825e+01    2.133073e+03
  1.241137e+01    2.116781e+03
  1.246448e+01    2.115702e+03
  1.251760e+01    2.111139e+03
  1.257072e+01    2.108066e+03
  1.262384e+01    2.114162e+03
  1.267696e+01    2.100179e+03
  1.273008e+01    2.084913e+03
  1.278319e+01    2.075694e+03
  1.283631e+01    2.063445e+03
  1.288943e+01    2.058676e+03
  1.294255e+01    2.046863e+03
  1.299567e+01    2.045071e+03
  1.304878e+01    2.036499e+03
  1.310190e+01    2.035878e+03
  1.315502e+01    2.030552e+03
  1.320814e+01    2.007765e+03
  1.326126e+01    1.984662e+03
  1.331437e+01    1.977694e+03
  1.336749e+01    1.970664e+03
  1.342061e+01    1.959633e+03
  1.347373e+01    1.979567e+03
  1.352685e+01    1.976416e+03
  1.357997e+01    1.964455e+03
  1.363308e+01    1.954554e+03
  1.368620e+01    1.949110e+03
  1.373932e+01    1.940431e+03
  1.379244e+01    1.938071e+03
  1.384556e+01    1.927913e+03
  1.389867e+01    1.919890e+03
  1.395179e+01    1.909010e+03
  1.400491e+01    1.908322e+03
  1.405803e+01    1.905347e+03
  1.411115e+01    1.897628e+03
  1.416427e+01    1.888636e+03
  1.421738e+01    1.882921e+03
  1.427050e+01    1.874120e+03
  1.432362e+01    1.876106e+03
  1.437674e+01    1.873617e+03
  1.442986e+01    1.862318e+03
  1.448297e+01    1.855823e+03
  1.453609e+01    1.849322e+03
  1.458921e+01    1.838942e+03
  1.464233e+01    1.835582e+03
  1.469545e+01    1.829711e+03
  1.474857e+01    1.811515e+03
  1.480168e+01    1.819720e+03
  1.485480e+01    1.814678e+03
  1.490792e+01    1.811788e+03
  1.496104e+01    1.803862e+03
  1.501416e+01    1.802853e+03
  1.506727e+01    1.797525e+03
  1.512039e+01    1.795241e+03
  1.517351e+01    1.808252e+03
  1.522663e+01    1.821667e+03
  1.527975e+01    1.819413e+03
  1.533286e+01    1.804093e+03
  1.538598e+01    1.794018e+03
  1.543910e+01    1.785646e+03
  1.549222e+01    1.780749e+03
  1.554534e+01    1.779662e+03
  1.559846e+01    1.777194e+03
  1.565157e+01    1.770778e+03
  1.570469e+01    1.764931e+03
  1.575781e+01    1.762688e+03
  1.581093e+01    1.759643e+03
  1.586405e+01    1.757323e+03
  1.591716e+01    1.750178e+03
  1.597028e+01    1.743905e+03
  1.602340e+01    1.728890e+03
  1.607652e+01    1.718000e+03
  1.612964e+01    1.695491e+03
  1.618276e+01    1.683060e+03
  1.623587e+01    1.686051e+03
  1.628899e+01    1.700186e+03
  1.634211e+01    1.698316e+03
  1.639523e+01    1.693960e+03
  1.644835e+01    1.696102e+03
  1.650146e+01    1.689966e+03
  1.655458e+01    1.688232e+03
  1.660770e+01    1.683193e+03
  1.666082e+01    1.678951e+03
  1.671394e+01    1.678581e+03
  1.676706e+01    1.672570e+03
  1.682017e+01    1.686245e+03
  1.687329e+01    1.675497e+03
  1.692641e+01    1.668818e+03
  1.697953e+01    1.663321e+03
  1.703265e+01    1.660011e+03
  1.708576e+01    1.659350e+03
  1.713888e+01    1.651310e+03
  1.719200e+01    1.648499e+03
  1.724512e+01    1.640700e+03
  1.729824e+01    1.642272e+03
  1.735136e+01    1.636193e+03
  1.740447e+01    1.611880e+03
  1.745759e+01    1.622209e+03
  1.751071e+01    1.622571e+03
  1.756383e+01    1.634043e+03
  1.761695e+01    1.617725e+03
  1.767006e+01    1.616474e+03
  1.772318e+01    1.605645e+03
  1.777630e+01    1.605740e+03
  1.782942e+01    1.596098e+03
  1.788254e+01    1.593171e+03
  1.793565e+01    1.590791e+03
  1.798877e+01    1.588491e+03
  1.804189e+01    1.581405e+03
  1.809501e+01    1.576448e+03
  1.814813e+01    1.574215e+03
  1.820125e+01    1.568908e+03
  1.825436e+01    1.574712e+03
  1.830748e+01    1.567267e+03
  1.836060e+01    1.562799e+03
  1.841372e+01    1.560425e+03
  1.846684e+01    1.556460e+03
  1.851995e+01    1.536959e+03
  1.857307e+01    1.522576e+03
  1.862619e+01    1.513249e+03
  1.867931e+01    1.510148e+03
  1.873243e+01    1.528797e+03
  1.878555e+01    1.531214e+03
  1.883866e+01    1.529810e+03
  1.889178e+01    1.528894e+03
  1.894490e+01    1.540326e+03
  1.899802e+01    1.532189e+03
  1.905114e+01    1.526293e+03
  1.910425e+01    1.520993e+03
  1.915737e+01    1.516431e+03
  1.921049e+01    1.513638e+03
  1.926361e+01    1.508665e+03
  1.931673e+01    1.507052e+03
  1.936985e+01    1.504631e+03
  1.942296e+01    1.500722e+03
  1.947608e+01    1.501471e+03
  1.952920e+01    1.497618e+03
  1.958232e+01    1.497752e+03
  1.963544e+01    1.503884e+03
  1.968855e+01    1.488775e+03
  1.974167e+01    1.477089e+03
  1.979479e+01    1.482849e+03
  1.984791e+01    1.479879e+03
  1.990103e+01    1.477645e+03
  1.995414e+01    1.475847e+03
  2.000726e+01    1.473309e+03
  2.006038e+01    1.468304e+03
  2.011350e+01    1.465443e+03
  2.016662e+01    1.459166e+03
  2.021974e+01    1.462740e+03
  2.027285e+01    1.468110e+03
  2.032597e+01    1.452473e+03
  2.037909e+01    1.448730e+03
  2.043221e+01    1.443709e+03
  2.048533e+01    1.441535e+03
  2.053844e+01    1.441155e+03
  2.059156e+01    1.436171e+03
  2.064468e+01    1.433661e+03
  2.069780e+01    1.413905e+03
  2.075092e+01    1.391051e+03
  2.080404e+01    1.375966e+03
  2.085715e+01    1.395007e+03
  2.091027e+01    1.421252e+03
  2.096339e+01    1.427827e+03
  2.101651e+01    1.433300e+03
  2.106963e+01    1.436655e+03
  2.112274e+01    1.440927e+03
  2.117586e+01    1.441352e+03
  2.122898e+01    1.443985e+03
  2.128210e+01    1.441803e+03
  2.133522e+01    1.443391e+03
  2.138834e+01    1.440923e+03
  2.144145e+01    1.439819e+03
  2.149457e+01    1.440170e+03
  2.154769e+01    1.439148e+03
  2.160081e+01    1.438712e+03
  2.165393e+01    1.439456e+03
  2.170704e+01    1.439458e+03
  2.176016e+01    1.430067e+03
  2.181328e+01    1.437910e+03
  2.186640e+01    1.440226e+03
  2.191952e+01    1.437840e+03
  2.197263e+01    1.436262e+03
  2.202575e+01    1.433138e+03
  2.207887e+01    1.433996e+03
  2.213199e+01    1.431854e+03
  2.218511e+01    1.430839e+03
  2.223823e+01    1.430490e+03
  2.229134e+01    1.427797e+03
  2.234446e+01    1.427939e+03
  2.239758e+01    1.427804e+03
  2.245070e+01    1.423640e+03
  2.250382e+01    1.426424e+03
  2.255693e+01    1.422232e+03
  2.261005e+01    1.404966e+03
  2.266317e+01    1.391602e+03
  2.271629e+01    1.384249e+03
  2.276941e+01    1.374886e+03
  2.282253e+01    1.367324e+03
  2.287564e+01    1.363843e+03
  2.292876e+01    1.357133e+03
  2.298188e+01    1.354751e+03
  2.303500e+01    1.352693e+03
  2.308812e+01    1.350407e+03
  2.314123e+01    1.349348e+03
  2.319435e+01    1.343969e+03
  2.324747e+01    1.337588e+03
  2.330059e+01    1.332926e+03
  2.335371e+01    1.330159e+03
  2.340683e+01    1.328240e+03
  2.345994e+01    1.323383e+03
  2.351306e+01    1.319510e+03
  2.356618e+01    1.316104e+03
  2.361930e+01    1.309083e+03
  2.367242e+01    1.303673e+03
  2.372553e+01    1.299954e+03
  2.377865e+01    1.295440e+03
  2.383177e+01    1.290902e+03
  2.388489e+01    1.285385e+03
  2.393801e+01    1.280585e+03
  2.399113e+01    1.281151e+03
  2.404424e+01    1.279266e+03
  2.409736e+01    1.278116e+03
  2.415048e+01    1.274852e+03
  2.420360e+01    1.272125e+03
  2.425672e+01    1.269834e+03
  2.430983e+01    1.265763e+03
  2.436295e+01    1.262883e+03
  2.441607e+01    1.261597e+03
  2.446919e+01    1.258295e+03
  2.452231e+01    1.257696e+03
  2.457542e+01    1.255748e+03
  2.462854e+01    1.252198e+03
  2.468166e+01    1.251845e+03
  2.473478e+01    1.246737e+03
  2.478790e+01    1.237491e+03
  2.484102e+01    1.236727e+03
  2.489413e+01    1.231250e+03
  2.494725e+01    1.227356e+03
  2.500037e+01    1.222262e+03
  2.505349e+01    1.216448e+03
  2.510661e+01    1.214428e+03
  2.515972e+01    1.213850e+03
  2.521284e+01    1.211646e+03
  2.526596e+01    1.208882e+03
  2.531908e+01    1.205531e+03
  2.537220e+01    1.206857e+03
  2.542532e+01    1.200405e+03
  2.547843e+01    1.197557e+03
  2.553155e+01    1.194544e+03
  2.558467e+01    1.188928e+03
  2.563779e+01    1.177727e+03
  2.569091e+01    1.176337e+03
  2.574402e+01    1.164334e+03
  2.579714e+01    1.159670e+03
  2.585026e+01    1.151629e+03
  2.590338e+01    1.147684e+03
  2.595650e+01    1.145345e+03
  2.600962e+01    1.141550e+03
  2.606273e+01    1.144878e+03
  2.611585e+01    1.139609e+03
  2.616897e+01    1.142219e+03
  2.622209e+01    1.143558e+03
  2.627521e+01    1.134138e+03
  2.632832e+01    1.126773e+03
  2.638144e+01    1.121686e+03
  2.643456e+01    1.116907e+03
  2.648768e+01    1.107234e+03
  2.654080e+01    1.088442e+03
