# == pyFAI calibration ==
# Distance Sample to Detector: 0.2946421923531691 m
# PONI: 2.875e-01, 2.439e-01 m
# Rotations: -0.010990 -0.009181 0.000003 rad
# 
# == Fit2d calibration ==
# Distance Sample-beamCenter: 294.672 mm
# Center: x=1436.809, y=1655.851 pix
# Tilt: 0.820 deg  TiltPlanRot: -39.874 deg
# 
# Detector Pilatus 2M	 PixelSize= 1.720e-04, 1.720e-04 m
#    Detector has a mask: True 
#    Detector has a dark current: False 
#    detector has a flat field: False 
# 
# Wavelength: 2.0732883349524408e-11 m
# Mask applied: from detector
# Dark current applied: False
# Flat field applied: False
# Polarization factor: None
# Normalization factor: 1.0
# --> /gpfs/current/raw/FMue_3/FMue_3_20231024_175355_00083.dat
#        q_A^-1             I 
  3.483473e-02             nan
  8.795289e-02             nan
  1.410711e-01             nan
  1.941892e-01             nan
  2.473074e-01             nan
  3.004255e-01             nan
  3.535437e-01             nan
  4.066619e-01    1.416600e+04
  4.597800e-01    1.279840e+04
  5.128982e-01    1.070268e+04
  5.660163e-01    9.537910e+03
  6.191345e-01    8.988410e+03
  6.722527e-01    8.686572e+03
  7.253708e-01    8.599406e+03
  7.784890e-01    8.564427e+03
  8.316071e-01    8.689135e+03
  8.847253e-01    8.840474e+03
  9.378435e-01    9.271195e+03
  9.909616e-01    1.001490e+04
  1.044080e+00    1.014330e+04
  1.097198e+00    9.933243e+03
  1.150316e+00    1.033896e+04
  1.203434e+00    1.120343e+04
  1.256552e+00    1.222419e+04
  1.309671e+00    1.291973e+04
  1.362789e+00    1.389543e+04
  1.415907e+00    1.448621e+04
  1.469025e+00    1.463228e+04
  1.522143e+00    1.449498e+04
  1.575261e+00    1.386723e+04
  1.628380e+00    1.312454e+04
  1.681498e+00    1.218113e+04
  1.734616e+00    1.123080e+04
  1.787734e+00    1.040111e+04
  1.840852e+00    9.720039e+03
  1.893970e+00    9.228819e+03
  1.947089e+00    9.180118e+03
  2.000207e+00    8.890742e+03
  2.053325e+00    8.343304e+03
  2.106443e+00    8.334629e+03
  2.159561e+00    8.680441e+03
  2.212679e+00    8.942259e+03
  2.265797e+00    9.106295e+03
  2.318916e+00    8.795281e+03
  2.372034e+00    8.158013e+03
  2.425152e+00    8.329721e+03
  2.478270e+00    9.108959e+03
  2.531388e+00    1.053374e+04
  2.584506e+00    1.134824e+04
  2.637625e+00    1.058196e+04
  2.690743e+00    9.330071e+03
  2.743861e+00    8.273191e+03
  2.796979e+00    6.859443e+03
  2.850097e+00    5.834043e+03
  2.903215e+00    5.490279e+03
  2.956334e+00    5.427698e+03
  3.009452e+00    5.698447e+03
  3.062570e+00    6.726741e+03
  3.115688e+00    8.915230e+03
  3.168806e+00    9.393330e+03
  3.221924e+00    7.784365e+03
  3.275043e+00    6.214676e+03
  3.328161e+00    5.547811e+03
  3.381279e+00    5.636094e+03
  3.434397e+00    5.264636e+03
  3.487515e+00    5.012235e+03
  3.540633e+00    4.930405e+03
  3.593751e+00    4.774765e+03
  3.646870e+00    4.766905e+03
  3.699988e+00    4.895261e+03
  3.753106e+00    5.108437e+03
  3.806224e+00    5.256097e+03
  3.859342e+00    5.368175e+03
  3.912460e+00    5.572819e+03
  3.965579e+00    5.913575e+03
  4.018697e+00    6.391897e+03
  4.071815e+00    6.843310e+03
  4.124933e+00    6.865592e+03
  4.178051e+00    6.620904e+03
  4.231169e+00    6.485044e+03
  4.284288e+00    6.784962e+03
  4.337406e+00    7.735437e+03
  4.390524e+00    9.056891e+03
  4.443642e+00    1.134467e+04
  4.496760e+00    1.281495e+04
  4.549878e+00    9.377213e+03
  4.602997e+00    6.206030e+03
  4.656115e+00    5.420209e+03
  4.709233e+00    5.261172e+03
  4.762351e+00    5.365334e+03
  4.815469e+00    5.319116e+03
  4.868587e+00    5.203351e+03
  4.921705e+00    5.216406e+03
  4.974824e+00    5.296817e+03
  5.027942e+00    5.337089e+03
  5.081060e+00    5.399006e+03
  5.134178e+00    5.340431e+03
  5.187296e+00    5.142923e+03
  5.240414e+00    4.869843e+03
  5.293533e+00    4.666097e+03
  5.346651e+00    4.522985e+03
  5.399769e+00    4.410702e+03
  5.452887e+00    4.395795e+03
  5.506005e+00    4.384362e+03
  5.559123e+00    4.024770e+03
  5.612242e+00    3.742576e+03
  5.665360e+00    3.654875e+03
  5.718478e+00    3.569517e+03
  5.771596e+00    3.527414e+03
  5.824714e+00    3.572779e+03
  5.877832e+00    3.668328e+03
  5.930951e+00    3.808529e+03
  5.984069e+00    3.929844e+03
  6.037187e+00    3.950413e+03
  6.090305e+00    3.873879e+03
  6.143423e+00    3.767608e+03
  6.196541e+00    3.816136e+03
  6.249660e+00    3.991605e+03
  6.302778e+00    3.986938e+03
  6.355896e+00    3.731475e+03
  6.409014e+00    3.589093e+03
  6.462132e+00    3.515343e+03
  6.515250e+00    3.444721e+03
  6.568368e+00    3.442895e+03
  6.621487e+00    3.459500e+03
  6.674605e+00    3.485025e+03
  6.727723e+00    3.547608e+03
  6.780841e+00    3.540849e+03
  6.833959e+00    3.462685e+03
  6.887077e+00    3.379986e+03
  6.940196e+00    3.313951e+03
  6.993314e+00    3.337979e+03
  7.046432e+00    3.361415e+03
  7.099550e+00    3.283650e+03
  7.152668e+00    3.201294e+03
  7.205786e+00    3.149968e+03
  7.258905e+00    3.106811e+03
  7.312023e+00    3.115644e+03
  7.365141e+00    3.150969e+03
  7.418259e+00    3.203263e+03
  7.471377e+00    3.253936e+03
  7.524495e+00    3.321286e+03
  7.577614e+00    3.391209e+03
  7.630732e+00    3.440921e+03
  7.683850e+00    3.561295e+03
  7.736968e+00    3.719380e+03
  7.790086e+00    3.676646e+03
  7.843204e+00    3.443502e+03
  7.896322e+00    3.233812e+03
  7.949441e+00    3.123476e+03
  8.002559e+00    3.092175e+03
  8.055677e+00    3.091147e+03
  8.108795e+00    3.087309e+03
  8.161913e+00    3.080452e+03
  8.215031e+00    3.031985e+03
  8.268150e+00    2.967485e+03
  8.321268e+00    2.921906e+03
  8.374386e+00    2.898918e+03
  8.427504e+00    2.878419e+03
  8.480622e+00    2.855096e+03
  8.533740e+00    2.796049e+03
  8.586859e+00    2.826338e+03
  8.639977e+00    2.824194e+03
  8.693095e+00    2.819144e+03
  8.746213e+00    2.818377e+03
  8.799331e+00    2.805052e+03
  8.852449e+00    2.798969e+03
  8.905568e+00    2.817310e+03
  8.958686e+00    2.827999e+03
  9.011804e+00    2.833183e+03
  9.064922e+00    2.769302e+03
  9.118040e+00    2.699731e+03
  9.171158e+00    2.670434e+03
  9.224276e+00    2.657587e+03
  9.277395e+00    2.628796e+03
  9.330513e+00    2.611276e+03
  9.383631e+00    2.600931e+03
  9.436749e+00    2.588806e+03
  9.489867e+00    2.590251e+03
  9.542985e+00    2.585941e+03
  9.596104e+00    2.564839e+03
  9.649222e+00    2.556572e+03
  9.702340e+00    2.554319e+03
  9.755458e+00    2.550237e+03
  9.808576e+00    2.544580e+03
  9.861694e+00    2.551145e+03
  9.914813e+00    2.554382e+03
  9.967931e+00    2.542604e+03
  1.002105e+01    2.500496e+03
  1.007417e+01    2.451801e+03
  1.012729e+01    2.425127e+03
  1.018040e+01    2.422874e+03
  1.023352e+01    2.413285e+03
  1.028664e+01    2.385795e+03
  1.033976e+01    2.368924e+03
  1.039288e+01    2.383739e+03
  1.044599e+01    2.367173e+03
  1.049911e+01    2.364282e+03
  1.055223e+01    2.346585e+03
  1.060535e+01    2.344428e+03
  1.065847e+01    2.335766e+03
  1.071158e+01    2.329642e+03
  1.076470e+01    2.320734e+03
  1.081782e+01    2.316850e+03
  1.087094e+01    2.305042e+03
  1.092406e+01    2.313177e+03
  1.097718e+01    2.314226e+03
  1.103029e+01    2.314481e+03
  1.108341e+01    2.309720e+03
  1.113653e+01    2.297245e+03
  1.118965e+01    2.284189e+03
  1.124277e+01    2.275236e+03
  1.129588e+01    2.267651e+03
  1.134900e+01    2.255304e+03
  1.140212e+01    2.252843e+03
  1.145524e+01    2.246762e+03
  1.150836e+01    2.252831e+03
  1.156148e+01    2.246648e+03
  1.161459e+01    2.255000e+03
  1.166771e+01    2.247158e+03
  1.172083e+01    2.259141e+03
  1.177395e+01    2.243960e+03
  1.182707e+01    2.234861e+03
  1.188018e+01    2.237323e+03
  1.193330e+01    2.217116e+03
  1.198642e+01    2.198220e+03
  1.203954e+01    2.175154e+03
  1.209266e+01    2.167276e+03
  1.214578e+01    2.155910e+03
  1.219889e+01    2.156792e+03
  1.225201e+01    2.156309e+03
  1.230513e+01    2.151404e+03
  1.235825e+01    2.153132e+03
  1.241137e+01    2.142201e+03
  1.246448e+01    2.140385e+03
  1.251760e+01    2.136964e+03
  1.257072e+01    2.131260e+03
  1.262384e+01    2.133712e+03
  1.267696e+01    2.119288e+03
  1.273008e+01    2.106262e+03
  1.278319e+01    2.099375e+03
  1.283631e+01    2.088551e+03
  1.288943e+01    2.085318e+03
  1.294255e+01    2.071210e+03
  1.299567e+01    2.066845e+03
  1.304878e+01    2.060213e+03
  1.310190e+01    2.058210e+03
  1.315502e+01    2.053618e+03
  1.320814e+01    2.029245e+03
  1.326126e+01    2.006189e+03
  1.331437e+01    1.994483e+03
  1.336749e+01    1.990233e+03
  1.342061e+01    1.977188e+03
  1.347373e+01    2.002570e+03
  1.352685e+01    2.007265e+03
  1.357997e+01    1.996249e+03
  1.363308e+01    1.983291e+03
  1.368620e+01    1.973357e+03
  1.373932e+01    1.964167e+03
  1.379244e+01    1.957607e+03
  1.384556e+01    1.951175e+03
  1.389867e+01    1.944665e+03
  1.395179e+01    1.935635e+03
  1.400491e+01    1.933059e+03
  1.405803e+01    1.929102e+03
  1.411115e+01    1.921823e+03
  1.416427e+01    1.912036e+03
  1.421738e+01    1.906996e+03
  1.427050e+01    1.900068e+03
  1.432362e+01    1.900732e+03
  1.437674e+01    1.896773e+03
  1.442986e+01    1.885674e+03
  1.448297e+01    1.877160e+03
  1.453609e+01    1.870766e+03
  1.458921e+01    1.861605e+03
  1.464233e+01    1.857369e+03
  1.469545e+01    1.852011e+03
  1.474857e+01    1.832333e+03
  1.480168e+01    1.842807e+03
  1.485480e+01    1.838544e+03
  1.490792e+01    1.833137e+03
  1.496104e+01    1.826192e+03
  1.501416e+01    1.823165e+03
  1.506727e+01    1.819783e+03
  1.512039e+01    1.815448e+03
  1.517351e+01    1.828515e+03
  1.522663e+01    1.843752e+03
  1.527975e+01    1.838182e+03
  1.533286e+01    1.822885e+03
  1.538598e+01    1.813893e+03
  1.543910e+01    1.805702e+03
  1.549222e+01    1.803345e+03
  1.554534e+01    1.803461e+03
  1.559846e+01    1.800841e+03
  1.565157e+01    1.792961e+03
  1.570469e+01    1.787882e+03
  1.575781e+01    1.785344e+03
  1.581093e+01    1.782463e+03
  1.586405e+01    1.780049e+03
  1.591716e+01    1.774637e+03
  1.597028e+01    1.769515e+03
  1.602340e+01    1.753778e+03
  1.607652e+01    1.742323e+03
  1.612964e+01    1.718532e+03
  1.618276e+01    1.706646e+03
  1.623587e+01    1.708564e+03
  1.628899e+01    1.724400e+03
  1.634211e+01    1.720339e+03
  1.639523e+01    1.716339e+03
  1.644835e+01    1.718198e+03
  1.650146e+01    1.709864e+03
  1.655458e+01    1.709730e+03
  1.660770e+01    1.704981e+03
  1.666082e+01    1.700980e+03
  1.671394e+01    1.701141e+03
  1.676706e+01    1.696097e+03
  1.682017e+01    1.710195e+03
  1.687329e+01    1.699004e+03
  1.692641e+01    1.692474e+03
  1.697953e+01    1.688532e+03
  1.703265e+01    1.684377e+03
  1.708576e+01    1.683039e+03
  1.713888e+01    1.674166e+03
  1.719200e+01    1.673530e+03
  1.724512e+01    1.666241e+03
  1.729824e+01    1.666380e+03
  1.735136e+01    1.659252e+03
  1.740447e+01    1.637617e+03
  1.745759e+01    1.645498e+03
  1.751071e+01    1.646557e+03
  1.756383e+01    1.657312e+03
  1.761695e+01    1.640264e+03
  1.767006e+01    1.637910e+03
  1.772318e+01    1.628396e+03
  1.777630e+01    1.628011e+03
  1.782942e+01    1.618660e+03
  1.788254e+01    1.615227e+03
  1.793565e+01    1.612890e+03
  1.798877e+01    1.609739e+03
  1.804189e+01    1.604568e+03
  1.809501e+01    1.599658e+03
  1.814813e+01    1.595557e+03
  1.820125e+01    1.590758e+03
  1.825436e+01    1.596846e+03
  1.830748e+01    1.590157e+03
  1.836060e+01    1.584826e+03
  1.841372e+01    1.583248e+03
  1.846684e+01    1.577865e+03
  1.851995e+01    1.557705e+03
  1.857307e+01    1.542589e+03
  1.862619e+01    1.533891e+03
  1.867931e+01    1.529933e+03
  1.873243e+01    1.549461e+03
  1.878555e+01    1.551080e+03
  1.883866e+01    1.550801e+03
  1.889178e+01    1.549569e+03
  1.894490e+01    1.560450e+03
  1.899802e+01    1.551539e+03
  1.905114e+01    1.546756e+03
  1.910425e+01    1.541396e+03
  1.915737e+01    1.537492e+03
  1.921049e+01    1.533119e+03
  1.926361e+01    1.529568e+03
  1.931673e+01    1.527333e+03
  1.936985e+01    1.525129e+03
  1.942296e+01    1.522954e+03
  1.947608e+01    1.522885e+03
  1.952920e+01    1.518990e+03
  1.958232e+01    1.520043e+03
  1.963544e+01    1.524372e+03
  1.968855e+01    1.510454e+03
  1.974167e+01    1.499289e+03
  1.979479e+01    1.503047e+03
  1.984791e+01    1.501906e+03
  1.990103e+01    1.500038e+03
  1.995414e+01    1.499289e+03
  2.000726e+01    1.495833e+03
  2.006038e+01    1.492589e+03
  2.011350e+01    1.487983e+03
  2.016662e+01    1.482670e+03
  2.021974e+01    1.485660e+03
  2.027285e+01    1.491629e+03
  2.032597e+01    1.475384e+03
  2.037909e+01    1.471328e+03
  2.043221e+01    1.467777e+03
  2.048533e+01    1.465395e+03
  2.053844e+01    1.465109e+03
  2.059156e+01    1.458698e+03
  2.064468e+01    1.455339e+03
  2.069780e+01    1.435974e+03
  2.075092e+01    1.412457e+03
  2.080404e+01    1.399015e+03
  2.085715e+01    1.417158e+03
  2.091027e+01    1.442815e+03
  2.096339e+01    1.451676e+03
  2.101651e+01    1.455306e+03
  2.106963e+01    1.459346e+03
  2.112274e+01    1.461549e+03
  2.117586e+01    1.467581e+03
  2.122898e+01    1.491124e+03
  2.128210e+01    1.464124e+03
  2.133522e+01    1.463796e+03
  2.138834e+01    1.462713e+03
  2.144145e+01    1.461475e+03
  2.149457e+01    1.461708e+03
  2.154769e+01    1.461535e+03
  2.160081e+01    1.459334e+03
  2.165393e+01    1.461926e+03
  2.170704e+01    1.462082e+03
  2.176016e+01    1.450987e+03
  2.181328e+01    1.459987e+03
  2.186640e+01    1.461563e+03
  2.191952e+01    1.459941e+03
  2.197263e+01    1.455974e+03
  2.202575e+01    1.455307e+03
  2.207887e+01    1.454392e+03
  2.213199e+01    1.453088e+03
  2.218511e+01    1.452002e+03
  2.223823e+01    1.450759e+03
  2.229134e+01    1.448631e+03
  2.234446e+01    1.447354e+03
  2.239758e+01    1.447166e+03
  2.245070e+01    1.445287e+03
  2.250382e+01    1.445848e+03
  2.255693e+01    1.443644e+03
  2.261005e+01    1.425247e+03
  2.266317e+01    1.412095e+03
  2.271629e+01    1.403743e+03
  2.276941e+01    1.394666e+03
  2.282253e+01    1.386591e+03
  2.287564e+01    1.383271e+03
  2.292876e+01    1.379077e+03
  2.298188e+01    1.376636e+03
  2.303500e+01    1.373963e+03
  2.308812e+01    1.370115e+03
  2.314123e+01    1.368533e+03
  2.319435e+01    1.363692e+03
  2.324747e+01    1.357661e+03
  2.330059e+01    1.354509e+03
  2.335371e+01    1.352392e+03
  2.340683e+01    1.348751e+03
  2.345994e+01    1.343019e+03
  2.351306e+01    1.341864e+03
  2.356618e+01    1.336329e+03
  2.361930e+01    1.330674e+03
  2.367242e+01    1.325790e+03
  2.372553e+01    1.318793e+03
  2.377865e+01    1.315383e+03
  2.383177e+01    1.311400e+03
  2.388489e+01    1.304610e+03
  2.393801e+01    1.300216e+03
  2.399113e+01    1.300882e+03
  2.404424e+01    1.297200e+03
  2.409736e+01    1.297158e+03
  2.415048e+01    1.292050e+03
  2.420360e+01    1.290395e+03
  2.425672e+01    1.285078e+03
  2.430983e+01    1.281968e+03
  2.436295e+01    1.279843e+03
  2.441607e+01    1.278337e+03
  2.446919e+01    1.276519e+03
  2.452231e+01    1.276703e+03
  2.457542e+01    1.275417e+03
  2.462854e+01    1.268830e+03
  2.468166e+01    1.270779e+03
  2.473478e+01    1.263148e+03
  2.478790e+01    1.257713e+03
  2.484102e+01    1.256694e+03
  2.489413e+01    1.247962e+03
  2.494725e+01    1.246995e+03
  2.500037e+01    1.242736e+03
  2.505349e+01    1.238682e+03
  2.510661e+01    1.231435e+03
  2.515972e+01    1.229495e+03
  2.521284e+01    1.228692e+03
  2.526596e+01    1.226627e+03
  2.531908e+01    1.220471e+03
  2.537220e+01    1.219421e+03
  2.542532e+01    1.216830e+03
  2.547843e+01    1.213802e+03
  2.553155e+01    1.211550e+03
  2.558467e+01    1.204175e+03
  2.563779e+01    1.195696e+03
  2.569091e+01    1.188912e+03
  2.574402e+01    1.181547e+03
  2.579714e+01    1.174637e+03
  2.585026e+01    1.167662e+03
  2.590338e+01    1.163088e+03
  2.595650e+01    1.162055e+03
  2.600962e+01    1.159284e+03
  2.606273e+01    1.156012e+03
  2.611585e+01    1.157302e+03
  2.616897e+01    1.153323e+03
  2.622209e+01    1.154011e+03
  2.627521e+01    1.152697e+03
  2.632832e+01    1.143341e+03
  2.638144e+01    1.139110e+03
  2.643456e+01    1.134742e+03
  2.648768e+01    1.119859e+03
  2.654080e+01    1.089828e+03
