# == pyFAI calibration ==
# Distance Sample to Detector: 0.2946421923531691 m
# PONI: 2.875e-01, 2.439e-01 m
# Rotations: -0.010990 -0.009181 0.000003 rad
# 
# == Fit2d calibration ==
# Distance Sample-beamCenter: 294.672 mm
# Center: x=1436.809, y=1655.851 pix
# Tilt: 0.820 deg  TiltPlanRot: -39.874 deg
# 
# Detector Pilatus 2M	 PixelSize= 1.720e-04, 1.720e-04 m
#    Detector has a mask: True 
#    Detector has a dark current: False 
#    detector has a flat field: False 
# 
# Wavelength: 2.0732883349524408e-11 m
# Mask applied: from detector
# Dark current applied: False
# Flat field applied: False
# Polarization factor: None
# Normalization factor: 1.0
# --> /gpfs/current/raw/FMue_3/FMue_3_20231024_175355_00090.dat
#        q_A^-1             I 
  3.483473e-02             nan
  8.795289e-02             nan
  1.410711e-01             nan
  1.941892e-01             nan
  2.473074e-01             nan
  3.004255e-01             nan
  3.535437e-01             nan
  4.066619e-01    1.388159e+04
  4.597800e-01    1.259892e+04
  5.128982e-01    1.059129e+04
  5.660163e-01    9.465130e+03
  6.191345e-01    8.953060e+03
  6.722527e-01    8.682164e+03
  7.253708e-01    8.609960e+03
  7.784890e-01    8.583814e+03
  8.316071e-01    8.719349e+03
  8.847253e-01    8.882728e+03
  9.378435e-01    9.323147e+03
  9.909616e-01    1.005802e+04
  1.044080e+00    1.020410e+04
  1.097198e+00    9.988026e+03
  1.150316e+00    1.041241e+04
  1.203434e+00    1.130792e+04
  1.256552e+00    1.230006e+04
  1.309671e+00    1.302038e+04
  1.362789e+00    1.404910e+04
  1.415907e+00    1.462466e+04
  1.469025e+00    1.473489e+04
  1.522143e+00    1.456824e+04
  1.575261e+00    1.395408e+04
  1.628380e+00    1.318456e+04
  1.681498e+00    1.224676e+04
  1.734616e+00    1.128664e+04
  1.787734e+00    1.044323e+04
  1.840852e+00    9.754599e+03
  1.893970e+00    9.262712e+03
  1.947089e+00    9.210975e+03
  2.000207e+00    8.926869e+03
  2.053325e+00    8.393690e+03
  2.106443e+00    8.413562e+03
  2.159561e+00    8.797364e+03
  2.212679e+00    9.062810e+03
  2.265797e+00    9.202441e+03
  2.318916e+00    8.850945e+03
  2.372034e+00    8.184648e+03
  2.425152e+00    8.374354e+03
  2.478270e+00    9.235017e+03
  2.531388e+00    1.081991e+04
  2.584506e+00    1.172302e+04
  2.637625e+00    1.084184e+04
  2.690743e+00    9.434248e+03
  2.743861e+00    8.313941e+03
  2.796979e+00    6.866403e+03
  2.850097e+00    5.828333e+03
  2.903215e+00    5.473897e+03
  2.956334e+00    5.406029e+03
  3.009452e+00    5.684504e+03
  3.062570e+00    6.770202e+03
  3.115688e+00    9.047742e+03
  3.168806e+00    9.508646e+03
  3.221924e+00    7.819447e+03
  3.275043e+00    6.226380e+03
  3.328161e+00    5.540793e+03
  3.381279e+00    5.624108e+03
  3.434397e+00    5.278143e+03
  3.487515e+00    5.019142e+03
  3.540633e+00    4.936802e+03
  3.593751e+00    4.783857e+03
  3.646870e+00    4.780840e+03
  3.699988e+00    4.918048e+03
  3.753106e+00    5.145054e+03
  3.806224e+00    5.300101e+03
  3.859342e+00    5.416031e+03
  3.912460e+00    5.641897e+03
  3.965579e+00    6.020252e+03
  4.018697e+00    6.539250e+03
  4.071815e+00    6.983543e+03
  4.124933e+00    6.955090e+03
  4.178051e+00    6.660563e+03
  4.231169e+00    6.491946e+03
  4.284288e+00    6.803859e+03
  4.337406e+00    7.822938e+03
  4.390524e+00    9.264333e+03
  4.443642e+00    1.160258e+04
  4.496760e+00    1.295088e+04
  4.549878e+00    9.417599e+03
  4.602997e+00    6.231521e+03
  4.656115e+00    5.449382e+03
  4.709233e+00    5.285047e+03
  4.762351e+00    5.390518e+03
  4.815469e+00    5.342876e+03
  4.868587e+00    5.234494e+03
  4.921705e+00    5.255868e+03
  4.974824e+00    5.342254e+03
  5.027942e+00    5.392980e+03
  5.081060e+00    5.467898e+03
  5.134178e+00    5.411748e+03
  5.187296e+00    5.203626e+03
  5.240414e+00    4.909702e+03
  5.293533e+00    4.690829e+03
  5.346651e+00    4.549371e+03
  5.399769e+00    4.443888e+03
  5.452887e+00    4.429659e+03
  5.506005e+00    4.405941e+03
  5.559123e+00    4.046879e+03
  5.612242e+00    3.769372e+03
  5.665360e+00    3.680108e+03
  5.718478e+00    3.593730e+03
  5.771596e+00    3.561417e+03
  5.824714e+00    3.612573e+03
  5.877832e+00    3.722027e+03
  5.930951e+00    3.873648e+03
  5.984069e+00    3.998609e+03
  6.037187e+00    4.007496e+03
  6.090305e+00    3.914457e+03
  6.143423e+00    3.799570e+03
  6.196541e+00    3.852863e+03
  6.249660e+00    4.026604e+03
  6.302778e+00    4.019277e+03
  6.355896e+00    3.753188e+03
  6.409014e+00    3.609837e+03
  6.462132e+00    3.533568e+03
  6.515250e+00    3.465166e+03
  6.568368e+00    3.467867e+03
  6.621487e+00    3.492053e+03
  6.674605e+00    3.526429e+03
  6.727723e+00    3.594553e+03
  6.780841e+00    3.588641e+03
  6.833959e+00    3.499270e+03
  6.887077e+00    3.404665e+03
  6.940196e+00    3.339561e+03
  6.993314e+00    3.362969e+03
  7.046432e+00    3.386384e+03
  7.099550e+00    3.304109e+03
  7.152668e+00    3.222651e+03
  7.205786e+00    3.167539e+03
  7.258905e+00    3.127474e+03
  7.312023e+00    3.137821e+03
  7.365141e+00    3.182613e+03
  7.418259e+00    3.237178e+03
  7.471377e+00    3.289101e+03
  7.524495e+00    3.351059e+03
  7.577614e+00    3.430857e+03
  7.630732e+00    3.489260e+03
  7.683850e+00    3.604808e+03
  7.736968e+00    3.759969e+03
  7.790086e+00    3.701180e+03
  7.843204e+00    3.470100e+03
  7.896322e+00    3.261788e+03
  7.949441e+00    3.158142e+03
  8.002559e+00    3.131003e+03
  8.055677e+00    3.132719e+03
  8.108795e+00    3.126280e+03
  8.161913e+00    3.111203e+03
  8.215031e+00    3.058239e+03
  8.268150e+00    2.992486e+03
  8.321268e+00    2.943339e+03
  8.374386e+00    2.921061e+03
  8.427504e+00    2.900344e+03
  8.480622e+00    2.878995e+03
  8.533740e+00    2.820060e+03
  8.586859e+00    2.849522e+03
  8.639977e+00    2.849551e+03
  8.693095e+00    2.844523e+03
  8.746213e+00    2.845051e+03
  8.799331e+00    2.831911e+03
  8.852449e+00    2.825222e+03
  8.905568e+00    2.842770e+03
  8.958686e+00    2.853910e+03
  9.011804e+00    2.855585e+03
  9.064922e+00    2.792391e+03
  9.118040e+00    2.722305e+03
  9.171158e+00    2.699633e+03
  9.224276e+00    2.684586e+03
  9.277395e+00    2.653681e+03
  9.330513e+00    2.635985e+03
  9.383631e+00    2.622959e+03
  9.436749e+00    2.609517e+03
  9.489867e+00    2.612289e+03
  9.542985e+00    2.604080e+03
  9.596104e+00    2.586572e+03
  9.649222e+00    2.579758e+03
  9.702340e+00    2.579107e+03
  9.755458e+00    2.577270e+03
  9.808576e+00    2.572581e+03
  9.861694e+00    2.575486e+03
  9.914813e+00    2.577682e+03
  9.967931e+00    2.566085e+03
  1.002105e+01    2.522143e+03
  1.007417e+01    2.474869e+03
  1.012729e+01    2.449907e+03
  1.018040e+01    2.449766e+03
  1.023352e+01    2.435361e+03
  1.028664e+01    2.407136e+03
  1.033976e+01    2.389643e+03
  1.039288e+01    2.402056e+03
  1.044599e+01    2.389392e+03
  1.049911e+01    2.383545e+03
  1.055223e+01    2.364250e+03
  1.060535e+01    2.363956e+03
  1.065847e+01    2.357301e+03
  1.071158e+01    2.350397e+03
  1.076470e+01    2.342261e+03
  1.081782e+01    2.340341e+03
  1.087094e+01    2.327859e+03
  1.092406e+01    2.333665e+03
  1.097718e+01    2.336504e+03
  1.103029e+01    2.336016e+03
  1.108341e+01    2.332056e+03
  1.113653e+01    2.321248e+03
  1.118965e+01    2.306417e+03
  1.124277e+01    2.294944e+03
  1.129588e+01    2.286738e+03
  1.134900e+01    2.275642e+03
  1.140212e+01    2.274564e+03
  1.145524e+01    2.268707e+03
  1.150836e+01    2.273878e+03
  1.156148e+01    2.267755e+03
  1.161459e+01    2.277661e+03
  1.166771e+01    2.270469e+03
  1.172083e+01    2.282500e+03
  1.177395e+01    2.263535e+03
  1.182707e+01    2.254348e+03
  1.188018e+01    2.252309e+03
  1.193330e+01    2.237580e+03
  1.198642e+01    2.218218e+03
  1.203954e+01    2.196526e+03
  1.209266e+01    2.186691e+03
  1.214578e+01    2.174556e+03
  1.219889e+01    2.177046e+03
  1.225201e+01    2.174956e+03
  1.230513e+01    2.171220e+03
  1.235825e+01    2.172927e+03
  1.241137e+01    2.160817e+03
  1.246448e+01    2.158916e+03
  1.251760e+01    2.156919e+03
  1.257072e+01    2.148552e+03
  1.262384e+01    2.154311e+03
  1.267696e+01    2.138829e+03
  1.273008e+01    2.124616e+03
  1.278319e+01    2.116518e+03
  1.283631e+01    2.108059e+03
  1.288943e+01    2.100838e+03
  1.294255e+01    2.091286e+03
  1.299567e+01    2.085126e+03
  1.304878e+01    2.077842e+03
  1.310190e+01    2.075339e+03
  1.315502e+01    2.072336e+03
  1.320814e+01    2.049201e+03
  1.326126e+01    2.025496e+03
  1.331437e+01    2.014804e+03
  1.336749e+01    2.006178e+03
  1.342061e+01    1.995161e+03
  1.347373e+01    2.023034e+03
  1.352685e+01    2.025543e+03
  1.357997e+01    2.014827e+03
  1.363308e+01    2.001287e+03
  1.368620e+01    1.991917e+03
  1.373932e+01    1.981975e+03
  1.379244e+01    1.974393e+03
  1.384556e+01    1.970443e+03
  1.389867e+01    1.962402e+03
  1.395179e+01    1.953030e+03
  1.400491e+01    1.948605e+03
  1.405803e+01    1.947723e+03
  1.411115e+01    1.938488e+03
  1.416427e+01    1.929658e+03
  1.421738e+01    1.926301e+03
  1.427050e+01    1.918479e+03
  1.432362e+01    1.918670e+03
  1.437674e+01    1.915208e+03
  1.442986e+01    1.901424e+03
  1.448297e+01    1.893955e+03
  1.453609e+01    1.887141e+03
  1.458921e+01    1.877482e+03
  1.464233e+01    1.874739e+03
  1.469545e+01    1.867311e+03
  1.474857e+01    1.848488e+03
  1.480168e+01    1.858425e+03
  1.485480e+01    1.854668e+03
  1.490792e+01    1.851344e+03
  1.496104e+01    1.842453e+03
  1.501416e+01    1.839649e+03
  1.506727e+01    1.835427e+03
  1.512039e+01    1.833915e+03
  1.517351e+01    1.845646e+03
  1.522663e+01    1.859875e+03
  1.527975e+01    1.854967e+03
  1.533286e+01    1.840452e+03
  1.538598e+01    1.830471e+03
  1.543910e+01    1.823348e+03
  1.549222e+01    1.820180e+03
  1.554534e+01    1.820442e+03
  1.559846e+01    1.816711e+03
  1.565157e+01    1.808882e+03
  1.570469e+01    1.803787e+03
  1.575781e+01    1.800698e+03
  1.581093e+01    1.796746e+03
  1.586405e+01    1.795342e+03
  1.591716e+01    1.789385e+03
  1.597028e+01    1.784268e+03
  1.602340e+01    1.768843e+03
  1.607652e+01    1.757891e+03
  1.612964e+01    1.734126e+03
  1.618276e+01    1.722038e+03
  1.623587e+01    1.723399e+03
  1.628899e+01    1.740210e+03
  1.634211e+01    1.736825e+03
  1.639523e+01    1.731901e+03
  1.644835e+01    1.732766e+03
  1.650146e+01    1.725472e+03
  1.655458e+01    1.724282e+03
  1.660770e+01    1.718926e+03
  1.666082e+01    1.716698e+03
  1.671394e+01    1.717064e+03
  1.676706e+01    1.710196e+03
  1.682017e+01    1.726428e+03
  1.687329e+01    1.713865e+03
  1.692641e+01    1.708099e+03
  1.697953e+01    1.702722e+03
  1.703265e+01    1.699008e+03
  1.708576e+01    1.697425e+03
  1.713888e+01    1.688131e+03
  1.719200e+01    1.687784e+03
  1.724512e+01    1.680150e+03
  1.729824e+01    1.681732e+03
  1.735136e+01    1.675143e+03
  1.740447e+01    1.651608e+03
  1.745759e+01    1.659972e+03
  1.751071e+01    1.660260e+03
  1.756383e+01    1.670686e+03
  1.761695e+01    1.655122e+03
  1.767006e+01    1.651591e+03
  1.772318e+01    1.643391e+03
  1.777630e+01    1.641382e+03
  1.782942e+01    1.634642e+03
  1.788254e+01    1.629089e+03
  1.793565e+01    1.627056e+03
  1.798877e+01    1.625800e+03
  1.804189e+01    1.617566e+03
  1.809501e+01    1.614258e+03
  1.814813e+01    1.610804e+03
  1.820125e+01    1.605109e+03
  1.825436e+01    1.610640e+03
  1.830748e+01    1.603718e+03
  1.836060e+01    1.599246e+03
  1.841372e+01    1.597141e+03
  1.846684e+01    1.590872e+03
  1.851995e+01    1.571283e+03
  1.857307e+01    1.557186e+03
  1.862619e+01    1.547558e+03
  1.867931e+01    1.543574e+03
  1.873243e+01    1.563025e+03
  1.878555e+01    1.564130e+03
  1.883866e+01    1.563959e+03
  1.889178e+01    1.562839e+03
  1.894490e+01    1.574727e+03
  1.899802e+01    1.564760e+03
  1.905114e+01    1.559843e+03
  1.910425e+01    1.554825e+03
  1.915737e+01    1.550253e+03
  1.921049e+01    1.547049e+03
  1.926361e+01    1.542237e+03
  1.931673e+01    1.540318e+03
  1.936985e+01    1.538216e+03
  1.942296e+01    1.535742e+03
  1.947608e+01    1.534784e+03
  1.952920e+01    1.531388e+03
  1.958232e+01    1.532108e+03
  1.963544e+01    1.537461e+03
  1.968855e+01    1.523400e+03
  1.974167e+01    1.511472e+03
  1.979479e+01    1.517343e+03
  1.984791e+01    1.513979e+03
  1.990103e+01    1.512622e+03
  1.995414e+01    1.511957e+03
  2.000726e+01    1.509146e+03
  2.006038e+01    1.503406e+03
  2.011350e+01    1.500327e+03
  2.016662e+01    1.495019e+03
  2.021974e+01    1.496690e+03
  2.027285e+01    1.504421e+03
  2.032597e+01    1.488112e+03
  2.037909e+01    1.484000e+03
  2.043221e+01    1.480193e+03
  2.048533e+01    1.476779e+03
  2.053844e+01    1.476685e+03
  2.059156e+01    1.471868e+03
  2.064468e+01    1.468361e+03
  2.069780e+01    1.449725e+03
  2.075092e+01    1.423635e+03
  2.080404e+01    1.410529e+03
  2.085715e+01    1.429588e+03
  2.091027e+01    1.455582e+03
  2.096339e+01    1.462077e+03
  2.101651e+01    1.467174e+03
  2.106963e+01    1.471066e+03
  2.112274e+01    1.475357e+03
  2.117586e+01    1.477083e+03
  2.122898e+01    1.479638e+03
  2.128210e+01    1.476814e+03
  2.133522e+01    1.476828e+03
  2.138834e+01    1.474394e+03
  2.144145e+01    1.474568e+03
  2.149457e+01    1.475354e+03
  2.154769e+01    1.474398e+03
  2.160081e+01    1.472621e+03
  2.165393e+01    1.473540e+03
  2.170704e+01    1.481820e+03
  2.176016e+01    1.467649e+03
  2.181328e+01    1.471853e+03
  2.186640e+01    1.473197e+03
  2.191952e+01    1.471536e+03
  2.197263e+01    1.469525e+03
  2.202575e+01    1.467969e+03
  2.207887e+01    1.468079e+03
  2.213199e+01    1.465622e+03
  2.218511e+01    1.464575e+03
  2.223823e+01    1.464117e+03
  2.229134e+01    1.462076e+03
  2.234446e+01    1.461075e+03
  2.239758e+01    1.460458e+03
  2.245070e+01    1.457518e+03
  2.250382e+01    1.458441e+03
  2.255693e+01    1.455283e+03
  2.261005e+01    1.436947e+03
  2.266317e+01    1.424101e+03
  2.271629e+01    1.417067e+03
  2.276941e+01    1.407473e+03
  2.282253e+01    1.399998e+03
  2.287564e+01    1.396828e+03
  2.292876e+01    1.390344e+03
  2.298188e+01    1.388219e+03
  2.303500e+01    1.385395e+03
  2.308812e+01    1.382080e+03
  2.314123e+01    1.380554e+03
  2.319435e+01    1.374749e+03
  2.324747e+01    1.369975e+03
  2.330059e+01    1.365996e+03
  2.335371e+01    1.363026e+03
  2.340683e+01    1.357958e+03
  2.345994e+01    1.355895e+03
  2.351306e+01    1.351202e+03
  2.356618e+01    1.349122e+03
  2.361930e+01    1.344050e+03
  2.367242e+01    1.337612e+03
  2.372553e+01    1.332589e+03
  2.377865e+01    1.327366e+03
  2.383177e+01    1.321534e+03
  2.388489e+01    1.317442e+03
  2.393801e+01    1.312507e+03
  2.399113e+01    1.311035e+03
  2.404424e+01    1.309162e+03
  2.409736e+01    1.308614e+03
  2.415048e+01    1.303992e+03
  2.420360e+01    1.300409e+03
  2.425672e+01    1.297145e+03
  2.430983e+01    1.295063e+03
  2.436295e+01    1.291975e+03
  2.441607e+01    1.290481e+03
  2.446919e+01    1.289416e+03
  2.452231e+01    1.287460e+03
  2.457542e+01    1.282653e+03
  2.462854e+01    1.280257e+03
  2.468166e+01    1.279708e+03
  2.473478e+01    1.277012e+03
  2.478790e+01    1.269139e+03
  2.484102e+01    1.266119e+03
  2.489413e+01    1.259036e+03
  2.494725e+01    1.257593e+03
  2.500037e+01    1.252452e+03
  2.505349e+01    1.246967e+03
  2.510661e+01    1.240548e+03
  2.515972e+01    1.237469e+03
  2.521284e+01    1.239942e+03
  2.526596e+01    1.237225e+03
  2.531908e+01    1.230660e+03
  2.537220e+01    1.231022e+03
  2.542532e+01    1.229205e+03
  2.547843e+01    1.224046e+03
  2.553155e+01    1.220742e+03
  2.558467e+01    1.214447e+03
  2.563779e+01    1.206672e+03
  2.569091e+01    1.202509e+03
  2.574402e+01    1.190669e+03
  2.579714e+01    1.187338e+03
  2.585026e+01    1.180492e+03
  2.590338e+01    1.170599e+03
  2.595650e+01    1.167086e+03
  2.600962e+01    1.169387e+03
  2.606273e+01    1.165077e+03
  2.611585e+01    1.165167e+03
  2.616897e+01    1.166458e+03
  2.622209e+01    1.168327e+03
  2.627521e+01    1.158592e+03
  2.632832e+01    1.153472e+03
  2.638144e+01    1.151794e+03
  2.643456e+01    1.142590e+03
  2.648768e+01    1.131961e+03
  2.654080e+01    1.109627e+03
