# == pyFAI calibration ==
# Distance Sample to Detector: 0.2946421923531691 m
# PONI: 2.875e-01, 2.439e-01 m
# Rotations: -0.010990 -0.009181 0.000003 rad
# 
# == Fit2d calibration ==
# Distance Sample-beamCenter: 294.672 mm
# Center: x=1436.809, y=1655.851 pix
# Tilt: 0.820 deg  TiltPlanRot: -39.874 deg
# 
# Detector Pilatus 2M	 PixelSize= 1.720e-04, 1.720e-04 m
#    Detector has a mask: True 
#    Detector has a dark current: False 
#    detector has a flat field: False 
# 
# Wavelength: 2.0732883349524408e-11 m
# Mask applied: from detector
# Dark current applied: False
# Flat field applied: False
# Polarization factor: None
# Normalization factor: 1.0
# --> /gpfs/current/raw/FMue_3/FMue_3_20231024_175355_00039.dat
#        q_A^-1             I 
  3.483473e-02             nan
  8.795289e-02             nan
  1.410711e-01             nan
  1.941892e-01             nan
  2.473074e-01             nan
  3.004255e-01             nan
  3.535437e-01             nan
  4.066619e-01    9.833356e+03
  4.597800e-01    9.349388e+03
  5.128982e-01    8.354155e+03
  5.660163e-01    7.952674e+03
  6.191345e-01    7.921427e+03
  6.722527e-01    8.003146e+03
  7.253708e-01    8.315918e+03
  7.784890e-01    1.309102e+04
  8.316071e-01    2.700312e+04
  8.847253e-01    1.697354e+04
  9.378435e-01    9.365034e+03
  9.909616e-01    9.922864e+03
  1.044080e+00    1.006950e+04
  1.097198e+00    9.819924e+03
  1.150316e+00    1.019609e+04
  1.203434e+00    1.089227e+04
  1.256552e+00    1.191104e+04
  1.309671e+00    1.271374e+04
  1.362789e+00    1.361114e+04
  1.415907e+00    1.430650e+04
  1.469025e+00    1.451468e+04
  1.522143e+00    1.443855e+04
  1.575261e+00    1.396296e+04
  1.628380e+00    1.552451e+04
  1.681498e+00    1.736685e+04
  1.734616e+00    1.253956e+04
  1.787734e+00    1.041768e+04
  1.840852e+00    9.656980e+03
  1.893970e+00    9.122454e+03
  1.947089e+00    9.023499e+03
  2.000207e+00    8.655844e+03
  2.053325e+00    7.952005e+03
  2.106443e+00    7.730078e+03
  2.159561e+00    7.862120e+03
  2.212679e+00    8.039034e+03
  2.265797e+00    8.261395e+03
  2.318916e+00    8.139987e+03
  2.372034e+00    8.783992e+03
  2.425152e+00    1.305198e+04
  2.478270e+00    9.186449e+03
  2.531388e+00    8.045370e+03
  2.584506e+00    8.785754e+03
  2.637625e+00    8.650096e+03
  2.690743e+00    9.054383e+03
  2.743861e+00    1.236169e+04
  2.796979e+00    8.115398e+03
  2.850097e+00    5.797796e+03
  2.903215e+00    5.378023e+03
  2.956334e+00    5.208452e+03
  3.009452e+00    5.315353e+03
  3.062570e+00    6.178559e+03
  3.115688e+00    7.819871e+03
  3.168806e+00    8.694309e+03
  3.221924e+00    1.018184e+04
  3.275043e+00    9.631729e+03
  3.328161e+00    6.161131e+03
  3.381279e+00    5.907082e+03
  3.434397e+00    5.298488e+03
  3.487515e+00    5.012414e+03
  3.540633e+00    4.945012e+03
  3.593751e+00    5.018958e+03
  3.646870e+00    6.070090e+03
  3.699988e+00    5.529095e+03
  3.753106e+00    4.920585e+03
  3.806224e+00    5.052655e+03
  3.859342e+00    5.774113e+03
  3.912460e+00    5.588300e+03
  3.965579e+00    5.133789e+03
  4.018697e+00    5.463519e+03
  4.071815e+00    7.419899e+03
  4.124933e+00    7.917342e+03
  4.178051e+00    8.521557e+03
  4.231169e+00    6.706500e+03
  4.284288e+00    6.322286e+03
  4.337406e+00    7.209933e+03
  4.390524e+00    7.838776e+03
  4.443642e+00    1.017200e+04
  4.496760e+00    1.176845e+04
  4.549878e+00    9.274777e+03
  4.602997e+00    6.126226e+03
  4.656115e+00    5.183053e+03
  4.709233e+00    5.331592e+03
  4.762351e+00    5.962490e+03
  4.815469e+00    5.642764e+03
  4.868587e+00    5.299513e+03
  4.921705e+00    5.699509e+03
  4.974824e+00    5.517251e+03
  5.027942e+00    5.677660e+03
  5.081060e+00    5.679314e+03
  5.134178e+00    5.183472e+03
  5.187296e+00    5.072228e+03
  5.240414e+00    5.215455e+03
  5.293533e+00    4.861353e+03
  5.346651e+00    4.480530e+03
  5.399769e+00    4.274462e+03
  5.452887e+00    4.380198e+03
  5.506005e+00    4.543336e+03
  5.559123e+00    4.046839e+03
  5.612242e+00    3.882127e+03
  5.665360e+00    3.802510e+03
  5.718478e+00    3.518935e+03
  5.771596e+00    3.505855e+03
  5.824714e+00    3.636106e+03
  5.877832e+00    3.637401e+03
  5.930951e+00    3.690472e+03
  5.984069e+00    3.816366e+03
  6.037187e+00    3.739203e+03
  6.090305e+00    3.734799e+03
  6.143423e+00    3.691434e+03
  6.196541e+00    3.704091e+03
  6.249660e+00    4.202539e+03
  6.302778e+00    4.268859e+03
  6.355896e+00    3.943860e+03
  6.409014e+00    4.060476e+03
  6.462132e+00    3.904062e+03
  6.515250e+00    3.817297e+03
  6.568368e+00    3.638029e+03
  6.621487e+00    3.664097e+03
  6.674605e+00    3.586151e+03
  6.727723e+00    3.429583e+03
  6.780841e+00    3.366238e+03
  6.833959e+00    3.432407e+03
  6.887077e+00    3.358499e+03
  6.940196e+00    3.340166e+03
  6.993314e+00    3.399684e+03
  7.046432e+00    3.401857e+03
  7.099550e+00    3.620982e+03
  7.152668e+00    3.660088e+03
  7.205786e+00    3.394521e+03
  7.258905e+00    3.311613e+03
  7.312023e+00    3.181390e+03
  7.365141e+00    3.123492e+03
  7.418259e+00    3.099085e+03
  7.471377e+00    3.111367e+03
  7.524495e+00    3.203862e+03
  7.577614e+00    3.214755e+03
  7.630732e+00    3.272663e+03
  7.683850e+00    3.470015e+03
  7.736968e+00    3.643025e+03
  7.790086e+00    3.668749e+03
  7.843204e+00    3.559732e+03
  7.896322e+00    3.251644e+03
  7.949441e+00    3.039881e+03
  8.002559e+00    2.981805e+03
  8.055677e+00    2.970229e+03
  8.108795e+00    2.995387e+03
  8.161913e+00    3.121087e+03
  8.215031e+00    3.251131e+03
  8.268150e+00    3.094720e+03
  8.321268e+00    2.986064e+03
  8.374386e+00    3.006367e+03
  8.427504e+00    2.959735e+03
  8.480622e+00    2.934635e+03
  8.533740e+00    2.966586e+03
  8.586859e+00    3.006233e+03
  8.639977e+00    2.986906e+03
  8.693095e+00    2.934211e+03
  8.746213e+00    2.910246e+03
  8.799331e+00    2.900579e+03
  8.852449e+00    2.853555e+03
  8.905568e+00    2.838731e+03
  8.958686e+00    2.892526e+03
  9.011804e+00    2.899555e+03
  9.064922e+00    2.834487e+03
  9.118040e+00    2.717873e+03
  9.171158e+00    2.703538e+03
  9.224276e+00    2.725531e+03
  9.277395e+00    2.685095e+03
  9.330513e+00    2.652403e+03
  9.383631e+00    2.652853e+03
  9.436749e+00    2.639042e+03
  9.489867e+00    2.649570e+03
  9.542985e+00    2.656063e+03
  9.596104e+00    2.654259e+03
  9.649222e+00    2.616839e+03
  9.702340e+00    2.586120e+03
  9.755458e+00    2.591654e+03
  9.808576e+00    2.562838e+03
  9.861694e+00    2.556079e+03
  9.914813e+00    2.566024e+03
  9.967931e+00    2.565038e+03
  1.002105e+01    2.542742e+03
  1.007417e+01    2.500834e+03
  1.012729e+01    2.454121e+03
  1.018040e+01    2.446627e+03
  1.023352e+01    2.446084e+03
  1.028664e+01    2.437781e+03
  1.033976e+01    2.447415e+03
  1.039288e+01    2.460771e+03
  1.044599e+01    2.435930e+03
  1.049911e+01    2.441040e+03
  1.055223e+01    2.429180e+03
  1.060535e+01    2.412460e+03
  1.065847e+01    2.401698e+03
  1.071158e+01    2.392412e+03
  1.076470e+01    2.382302e+03
  1.081782e+01    2.409523e+03
  1.087094e+01    2.414877e+03
  1.092406e+01    2.402563e+03
  1.097718e+01    2.390562e+03
  1.103029e+01    2.359327e+03
  1.108341e+01    2.343970e+03
  1.113653e+01    2.335346e+03
  1.118965e+01    2.319488e+03
  1.124277e+01    2.310623e+03
  1.129588e+01    2.304107e+03
  1.134900e+01    2.298299e+03
  1.140212e+01    2.281062e+03
  1.145524e+01    2.259916e+03
  1.150836e+01    2.257733e+03
  1.156148e+01    2.261366e+03
  1.161459e+01    2.271625e+03
  1.166771e+01    2.259682e+03
  1.172083e+01    2.274898e+03
  1.177395e+01    2.268259e+03
  1.182707e+01    2.268067e+03
  1.188018e+01    2.280823e+03
  1.193330e+01    2.272240e+03
  1.198642e+01    2.253018e+03
  1.203954e+01    2.229120e+03
  1.209266e+01    2.218491e+03
  1.214578e+01    2.213082e+03
  1.219889e+01    2.213732e+03
  1.225201e+01    2.219081e+03
  1.230513e+01    2.230636e+03
  1.235825e+01    2.232304e+03
  1.241137e+01    2.214358e+03
  1.246448e+01    2.214236e+03
  1.251760e+01    2.221052e+03
  1.257072e+01    2.215243e+03
  1.262384e+01    2.212325e+03
  1.267696e+01    2.198010e+03
  1.273008e+01    2.184253e+03
  1.278319e+01    2.169472e+03
  1.283631e+01    2.153310e+03
  1.288943e+01    2.145467e+03
  1.294255e+01    2.133002e+03
  1.299567e+01    2.127178e+03
  1.304878e+01    2.117264e+03
  1.310190e+01    2.113532e+03
  1.315502e+01    2.113146e+03
  1.320814e+01    2.091044e+03
  1.326126e+01    2.056352e+03
  1.331437e+01    2.041232e+03
  1.336749e+01    2.027261e+03
  1.342061e+01    2.012238e+03
  1.347373e+01    2.038098e+03
  1.352685e+01    2.040267e+03
  1.357997e+01    2.031617e+03
  1.363308e+01    2.025156e+03
  1.368620e+01    2.012622e+03
  1.373932e+01    1.999306e+03
  1.379244e+01    1.990950e+03
  1.384556e+01    1.985312e+03
  1.389867e+01    1.979081e+03
  1.395179e+01    1.974204e+03
  1.400491e+01    1.971778e+03
  1.405803e+01    1.967815e+03
  1.411115e+01    1.959090e+03
  1.416427e+01    1.952282e+03
  1.421738e+01    1.953536e+03
  1.427050e+01    1.946038e+03
  1.432362e+01    1.949648e+03
  1.437674e+01    1.949381e+03
  1.442986e+01    1.938768e+03
  1.448297e+01    1.929586e+03
  1.453609e+01    1.920513e+03
  1.458921e+01    1.911674e+03
  1.464233e+01    1.907793e+03
  1.469545e+01    1.903054e+03
  1.474857e+01    1.885745e+03
  1.480168e+01    1.901478e+03
  1.485480e+01    1.896702e+03
  1.490792e+01    1.889407e+03
  1.496104e+01    1.881550e+03
  1.501416e+01    1.877684e+03
  1.506727e+01    1.873114e+03
  1.512039e+01    1.870154e+03
  1.517351e+01    1.880064e+03
  1.522663e+01    1.892577e+03
  1.527975e+01    1.889818e+03
  1.533286e+01    1.874152e+03
  1.538598e+01    1.863466e+03
  1.543910e+01    1.853152e+03
  1.549222e+01    1.850554e+03
  1.554534e+01    1.852421e+03
  1.559846e+01    1.850824e+03
  1.565157e+01    1.842213e+03
  1.570469e+01    1.834871e+03
  1.575781e+01    1.831221e+03
  1.581093e+01    1.826709e+03
  1.586405e+01    1.823923e+03
  1.591716e+01    1.818673e+03
  1.597028e+01    1.812221e+03
  1.602340e+01    1.797231e+03
  1.607652e+01    1.785679e+03
  1.612964e+01    1.761510e+03
  1.618276e+01    1.750571e+03
  1.623587e+01    1.753864e+03
  1.628899e+01    1.770030e+03
  1.634211e+01    1.769858e+03
  1.639523e+01    1.765181e+03
  1.644835e+01    1.767501e+03
  1.650146e+01    1.762588e+03
  1.655458e+01    1.761799e+03
  1.660770e+01    1.755749e+03
  1.666082e+01    1.751781e+03
  1.671394e+01    1.748718e+03
  1.676706e+01    1.744755e+03
  1.682017e+01    1.757318e+03
  1.687329e+01    1.746256e+03
  1.692641e+01    1.739034e+03
  1.697953e+01    1.736398e+03
  1.703265e+01    1.731351e+03
  1.708576e+01    1.730341e+03
  1.713888e+01    1.722093e+03
  1.719200e+01    1.719047e+03
  1.724512e+01    1.712044e+03
  1.729824e+01    1.711825e+03
  1.735136e+01    1.703714e+03
  1.740447e+01    1.682066e+03
  1.745759e+01    1.692377e+03
  1.751071e+01    1.691641e+03
  1.756383e+01    1.701920e+03
  1.761695e+01    1.684277e+03
  1.767006e+01    1.681331e+03
  1.772318e+01    1.670897e+03
  1.777630e+01    1.671266e+03
  1.782942e+01    1.663119e+03
  1.788254e+01    1.660316e+03
  1.793565e+01    1.656662e+03
  1.798877e+01    1.654856e+03
  1.804189e+01    1.647486e+03
  1.809501e+01    1.644459e+03
  1.814813e+01    1.639690e+03
  1.820125e+01    1.634945e+03
  1.825436e+01    1.641083e+03
  1.830748e+01    1.634417e+03
  1.836060e+01    1.630072e+03
  1.841372e+01    1.628360e+03
  1.846684e+01    1.622854e+03
  1.851995e+01    1.603404e+03
  1.857307e+01    1.589168e+03
  1.862619e+01    1.577832e+03
  1.867931e+01    1.575979e+03
  1.873243e+01    1.594782e+03
  1.878555e+01    1.598182e+03
  1.883866e+01    1.597057e+03
  1.889178e+01    1.596449e+03
  1.894490e+01    1.607620e+03
  1.899802e+01    1.598479e+03
  1.905114e+01    1.592543e+03
  1.910425e+01    1.586608e+03
  1.915737e+01    1.581710e+03
  1.921049e+01    1.577376e+03
  1.926361e+01    1.573178e+03
  1.931673e+01    1.570255e+03
  1.936985e+01    1.568232e+03
  1.942296e+01    1.565702e+03
  1.947608e+01    1.566219e+03
  1.952920e+01    1.561500e+03
  1.958232e+01    1.562626e+03
  1.963544e+01    1.567719e+03
  1.968855e+01    1.552898e+03
  1.974167e+01    1.541214e+03
  1.979479e+01    1.544371e+03
  1.984791e+01    1.543111e+03
  1.990103e+01    1.541984e+03
  1.995414e+01    1.539637e+03
  2.000726e+01    1.537301e+03
  2.006038e+01    1.532640e+03
  2.011350e+01    1.528478e+03
  2.016662e+01    1.523209e+03
  2.021974e+01    1.526176e+03
  2.027285e+01    1.532898e+03
  2.032597e+01    1.517707e+03
  2.037909e+01    1.512616e+03
  2.043221e+01    1.508022e+03
  2.048533e+01    1.506556e+03
  2.053844e+01    1.505360e+03
  2.059156e+01    1.499666e+03
  2.064468e+01    1.496900e+03
  2.069780e+01    1.477099e+03
  2.075092e+01    1.451240e+03
  2.080404e+01    1.436998e+03
  2.085715e+01    1.457399e+03
  2.091027e+01    1.485022e+03
  2.096339e+01    1.492445e+03
  2.101651e+01    1.496570e+03
  2.106963e+01    1.501029e+03
  2.112274e+01    1.503699e+03
  2.117586e+01    1.506413e+03
  2.122898e+01    1.509367e+03
  2.128210e+01    1.504901e+03
  2.133522e+01    1.507322e+03
  2.138834e+01    1.504808e+03
  2.144145e+01    1.503427e+03
  2.149457e+01    1.505128e+03
  2.154769e+01    1.503443e+03
  2.160081e+01    1.501650e+03
  2.165393e+01    1.503938e+03
  2.170704e+01    1.503942e+03
  2.176016e+01    1.493806e+03
  2.181328e+01    1.503257e+03
  2.186640e+01    1.502843e+03
  2.191952e+01    1.501113e+03
  2.197263e+01    1.499750e+03
  2.202575e+01    1.497243e+03
  2.207887e+01    1.496552e+03
  2.213199e+01    1.493902e+03
  2.218511e+01    1.492778e+03
  2.223823e+01    1.492968e+03
  2.229134e+01    1.491760e+03
  2.234446e+01    1.490395e+03
  2.239758e+01    1.490111e+03
  2.245070e+01    1.487497e+03
  2.250382e+01    1.487626e+03
  2.255693e+01    1.483845e+03
  2.261005e+01    1.467886e+03
  2.266317e+01    1.454036e+03
  2.271629e+01    1.444244e+03
  2.276941e+01    1.434151e+03
  2.282253e+01    1.427401e+03
  2.287564e+01    1.424561e+03
  2.292876e+01    1.419695e+03
  2.298188e+01    1.415128e+03
  2.303500e+01    1.412644e+03
  2.308812e+01    1.411090e+03
  2.314123e+01    1.407396e+03
  2.319435e+01    1.404949e+03
  2.324747e+01    1.395643e+03
  2.330059e+01    1.393585e+03
  2.335371e+01    1.392195e+03
  2.340683e+01    1.387515e+03
  2.345994e+01    1.385002e+03
  2.351306e+01    1.380481e+03
  2.356618e+01    1.376053e+03
  2.361930e+01    1.370581e+03
  2.367242e+01    1.365743e+03
  2.372553e+01    1.359850e+03
  2.377865e+01    1.354984e+03
  2.383177e+01    1.349439e+03
  2.388489e+01    1.345872e+03
  2.393801e+01    1.339267e+03
  2.399113e+01    1.341139e+03
  2.404424e+01    1.339098e+03
  2.409736e+01    1.336158e+03
  2.415048e+01    1.333218e+03
  2.420360e+01    1.328594e+03
  2.425672e+01    1.327299e+03
  2.430983e+01    1.322509e+03
  2.436295e+01    1.318203e+03
  2.441607e+01    1.316817e+03
  2.446919e+01    1.315800e+03
  2.452231e+01    1.315650e+03
  2.457542e+01    1.312228e+03
  2.462854e+01    1.307190e+03
  2.468166e+01    1.308782e+03
  2.473478e+01    1.302576e+03
  2.478790e+01    1.296045e+03
  2.484102e+01    1.293049e+03
  2.489413e+01    1.288582e+03
  2.494725e+01    1.285914e+03
  2.500037e+01    1.281875e+03
  2.505349e+01    1.275505e+03
  2.510661e+01    1.268804e+03
  2.515972e+01    1.265929e+03
  2.521284e+01    1.264680e+03
  2.526596e+01    1.263205e+03
  2.531908e+01    1.256472e+03
  2.537220e+01    1.256955e+03
  2.542532e+01    1.252448e+03
  2.547843e+01    1.253454e+03
  2.553155e+01    1.244671e+03
  2.558467e+01    1.237966e+03
  2.563779e+01    1.230372e+03
  2.569091e+01    1.224813e+03
  2.574402e+01    1.214673e+03
  2.579714e+01    1.209462e+03
  2.585026e+01    1.201803e+03
  2.590338e+01    1.196290e+03
  2.595650e+01    1.191125e+03
  2.600962e+01    1.193684e+03
  2.606273e+01    1.194795e+03
  2.611585e+01    1.196465e+03
  2.616897e+01    1.189270e+03
  2.622209e+01    1.191819e+03
  2.627521e+01    1.182117e+03
  2.632832e+01    1.176287e+03
  2.638144e+01    1.175451e+03
  2.643456e+01    1.172085e+03
  2.648768e+01    1.144290e+03
  2.654080e+01    1.150709e+03
