# == pyFAI calibration ==
# Distance Sample to Detector: 0.2946421923531691 m
# PONI: 2.875e-01, 2.439e-01 m
# Rotations: -0.010990 -0.009181 0.000003 rad
# 
# == Fit2d calibration ==
# Distance Sample-beamCenter: 294.672 mm
# Center: x=1436.809, y=1655.851 pix
# Tilt: 0.820 deg  TiltPlanRot: -39.874 deg
# 
# Detector Pilatus 2M	 PixelSize= 1.720e-04, 1.720e-04 m
#    Detector has a mask: True 
#    Detector has a dark current: False 
#    detector has a flat field: False 
# 
# Wavelength: 2.0732883349524408e-11 m
# Mask applied: from detector
# Dark current applied: False
# Flat field applied: False
# Polarization factor: None
# Normalization factor: 1.0
# --> /gpfs/current/raw/FMue_3/FMue_3_20231024_175355_00023.dat
#        q_A^-1             I 
  3.483473e-02             nan
  8.795289e-02             nan
  1.410711e-01             nan
  1.941892e-01             nan
  2.473074e-01             nan
  3.004255e-01             nan
  3.535437e-01             nan
  4.066619e-01    9.686363e+03
  4.597800e-01    9.237438e+03
  5.128982e-01    8.289021e+03
  5.660163e-01    7.928796e+03
  6.191345e-01    7.939003e+03
  6.722527e-01    8.056808e+03
  7.253708e-01    8.402563e+03
  7.784890e-01    1.383082e+04
  8.316071e-01    2.736346e+04
  8.847253e-01    1.633686e+04
  9.378435e-01    9.390760e+03
  9.909616e-01    9.970286e+03
  1.044080e+00    1.015043e+04
  1.097198e+00    9.929324e+03
  1.150316e+00    1.031937e+04
  1.203434e+00    1.102012e+04
  1.256552e+00    1.204644e+04
  1.309671e+00    1.293332e+04
  1.362789e+00    1.380859e+04
  1.415907e+00    1.450060e+04
  1.469025e+00    1.472617e+04
  1.522143e+00    1.466107e+04
  1.575261e+00    1.418568e+04
  1.628380e+00    1.629596e+04
  1.681498e+00    1.789119e+04
  1.734616e+00    1.249898e+04
  1.787734e+00    1.055815e+04
  1.840852e+00    9.807410e+03
  1.893970e+00    9.268907e+03
  1.947089e+00    9.175425e+03
  2.000207e+00    8.797461e+03
  2.053325e+00    8.094073e+03
  2.106443e+00    7.850390e+03
  2.159561e+00    7.979961e+03
  2.212679e+00    8.155330e+03
  2.265797e+00    8.370033e+03
  2.318916e+00    8.243439e+03
  2.372034e+00    8.876300e+03
  2.425152e+00    1.344724e+04
  2.478270e+00    9.416444e+03
  2.531388e+00    8.127035e+03
  2.584506e+00    8.924056e+03
  2.637625e+00    8.778430e+03
  2.690743e+00    9.233559e+03
  2.743861e+00    1.259173e+04
  2.796979e+00    8.200732e+03
  2.850097e+00    5.866201e+03
  2.903215e+00    5.441437e+03
  2.956334e+00    5.263108e+03
  3.009452e+00    5.387669e+03
  3.062570e+00    6.222034e+03
  3.115688e+00    7.870351e+03
  3.168806e+00    8.886648e+03
  3.221924e+00    1.073463e+04
  3.275043e+00    9.833673e+03
  3.328161e+00    6.230825e+03
  3.381279e+00    5.976668e+03
  3.434397e+00    5.364017e+03
  3.487515e+00    5.066689e+03
  3.540633e+00    4.999383e+03
  3.593751e+00    5.139556e+03
  3.646870e+00    6.280094e+03
  3.699988e+00    5.528187e+03
  3.753106e+00    4.957006e+03
  3.806224e+00    5.149193e+03
  3.859342e+00    5.922714e+03
  3.912460e+00    5.583123e+03
  3.965579e+00    5.165589e+03
  4.018697e+00    5.491577e+03
  4.071815e+00    7.463648e+03
  4.124933e+00    8.087513e+03
  4.178051e+00    8.716726e+03
  4.231169e+00    6.849171e+03
  4.284288e+00    6.475054e+03
  4.337406e+00    7.282120e+03
  4.390524e+00    7.890375e+03
  4.443642e+00    1.028858e+04
  4.496760e+00    1.197253e+04
  4.549878e+00    9.583371e+03
  4.602997e+00    6.218824e+03
  4.656115e+00    5.226609e+03
  4.709233e+00    5.365065e+03
  4.762351e+00    6.059227e+03
  4.815469e+00    5.733127e+03
  4.868587e+00    5.356596e+03
  4.921705e+00    5.793893e+03
  4.974824e+00    5.686766e+03
  5.027942e+00    5.890072e+03
  5.081060e+00    5.704330e+03
  5.134178e+00    5.232691e+03
  5.187296e+00    5.153907e+03
  5.240414e+00    5.329348e+03
  5.293533e+00    4.942829e+03
  5.346651e+00    4.525000e+03
  5.399769e+00    4.327237e+03
  5.452887e+00    4.447418e+03
  5.506005e+00    4.613857e+03
  5.559123e+00    4.107427e+03
  5.612242e+00    3.955430e+03
  5.665360e+00    3.858646e+03
  5.718478e+00    3.572096e+03
  5.771596e+00    3.588964e+03
  5.824714e+00    3.712334e+03
  5.877832e+00    3.664438e+03
  5.930951e+00    3.744538e+03
  5.984069e+00    3.869018e+03
  6.037187e+00    3.787804e+03
  6.090305e+00    3.789715e+03
  6.143423e+00    3.738133e+03
  6.196541e+00    3.729953e+03
  6.249660e+00    4.244694e+03
  6.302778e+00    4.354806e+03
  6.355896e+00    4.003116e+03
  6.409014e+00    4.163342e+03
  6.462132e+00    4.042331e+03
  6.515250e+00    3.877370e+03
  6.568368e+00    3.695585e+03
  6.621487e+00    3.725374e+03
  6.674605e+00    3.661947e+03
  6.727723e+00    3.466446e+03
  6.780841e+00    3.402201e+03
  6.833959e+00    3.486273e+03
  6.887077e+00    3.399805e+03
  6.940196e+00    3.391161e+03
  6.993314e+00    3.454676e+03
  7.046432e+00    3.453987e+03
  7.099550e+00    3.723818e+03
  7.152668e+00    3.752823e+03
  7.205786e+00    3.455145e+03
  7.258905e+00    3.365743e+03
  7.312023e+00    3.234402e+03
  7.365141e+00    3.166644e+03
  7.418259e+00    3.132046e+03
  7.471377e+00    3.146523e+03
  7.524495e+00    3.249609e+03
  7.577614e+00    3.268927e+03
  7.630732e+00    3.330431e+03
  7.683850e+00    3.525616e+03
  7.736968e+00    3.697538e+03
  7.790086e+00    3.761387e+03
  7.843204e+00    3.656291e+03
  7.896322e+00    3.294230e+03
  7.949441e+00    3.083809e+03
  8.002559e+00    3.017102e+03
  8.055677e+00    3.004804e+03
  8.108795e+00    3.031129e+03
  8.161913e+00    3.172205e+03
  8.215031e+00    3.323456e+03
  8.268150e+00    3.147923e+03
  8.321268e+00    3.030493e+03
  8.374386e+00    3.062865e+03
  8.427504e+00    3.005462e+03
  8.480622e+00    2.971445e+03
  8.533740e+00    3.020795e+03
  8.586859e+00    3.059112e+03
  8.639977e+00    3.042600e+03
  8.693095e+00    2.981034e+03
  8.746213e+00    2.954021e+03
  8.799331e+00    2.945942e+03
  8.852449e+00    2.898712e+03
  8.905568e+00    2.880873e+03
  8.958686e+00    2.941100e+03
  9.011804e+00    2.945690e+03
  9.064922e+00    2.889120e+03
  9.118040e+00    2.762062e+03
  9.171158e+00    2.757761e+03
  9.224276e+00    2.778651e+03
  9.277395e+00    2.732097e+03
  9.330513e+00    2.698313e+03
  9.383631e+00    2.695371e+03
  9.436749e+00    2.674416e+03
  9.489867e+00    2.693254e+03
  9.542985e+00    2.708996e+03
  9.596104e+00    2.707659e+03
  9.649222e+00    2.662270e+03
  9.702340e+00    2.634408e+03
  9.755458e+00    2.642305e+03
  9.808576e+00    2.600046e+03
  9.861694e+00    2.594290e+03
  9.914813e+00    2.604436e+03
  9.967931e+00    2.611809e+03
  1.002105e+01    2.594617e+03
  1.007417e+01    2.549556e+03
  1.012729e+01    2.495850e+03
  1.018040e+01    2.490156e+03
  1.023352e+01    2.485683e+03
  1.028664e+01    2.478502e+03
  1.033976e+01    2.495337e+03
  1.039288e+01    2.504925e+03
  1.044599e+01    2.477135e+03
  1.049911e+01    2.484244e+03
  1.055223e+01    2.477560e+03
  1.060535e+01    2.455463e+03
  1.065847e+01    2.442212e+03
  1.071158e+01    2.433077e+03
  1.076470e+01    2.423396e+03
  1.081782e+01    2.450936e+03
  1.087094e+01    2.465571e+03
  1.092406e+01    2.448026e+03
  1.097718e+01    2.433316e+03
  1.103029e+01    2.398614e+03
  1.108341e+01    2.383041e+03
  1.113653e+01    2.378812e+03
  1.118965e+01    2.358309e+03
  1.124277e+01    2.349737e+03
  1.129588e+01    2.346456e+03
  1.134900e+01    2.342620e+03
  1.140212e+01    2.320896e+03
  1.145524e+01    2.295798e+03
  1.150836e+01    2.295983e+03
  1.156148e+01    2.303031e+03
  1.161459e+01    2.313234e+03
  1.166771e+01    2.297164e+03
  1.172083e+01    2.314437e+03
  1.177395e+01    2.304865e+03
  1.182707e+01    2.306082e+03
  1.188018e+01    2.322513e+03
  1.193330e+01    2.315025e+03
  1.198642e+01    2.297434e+03
  1.203954e+01    2.270913e+03
  1.209266e+01    2.258422e+03
  1.214578e+01    2.248575e+03
  1.219889e+01    2.250951e+03
  1.225201e+01    2.258967e+03
  1.230513e+01    2.275272e+03
  1.235825e+01    2.275097e+03
  1.241137e+01    2.255070e+03
  1.246448e+01    2.252272e+03
  1.251760e+01    2.257076e+03
  1.257072e+01    2.255440e+03
  1.262384e+01    2.253554e+03
  1.267696e+01    2.239785e+03
  1.273008e+01    2.227560e+03
  1.278319e+01    2.208360e+03
  1.283631e+01    2.191013e+03
  1.288943e+01    2.182491e+03
  1.294255e+01    2.171297e+03
  1.299567e+01    2.165569e+03
  1.304878e+01    2.155815e+03
  1.310190e+01    2.151694e+03
  1.315502e+01    2.154574e+03
  1.320814e+01    2.128193e+03
  1.326126e+01    2.096388e+03
  1.331437e+01    2.077601e+03
  1.336749e+01    2.063597e+03
  1.342061e+01    2.046040e+03
  1.347373e+01    2.073713e+03
  1.352685e+01    2.078771e+03
  1.357997e+01    2.071989e+03
  1.363308e+01    2.061544e+03
  1.368620e+01    2.051186e+03
  1.373932e+01    2.035804e+03
  1.379244e+01    2.023680e+03
  1.384556e+01    2.017591e+03
  1.389867e+01    2.013993e+03
  1.395179e+01    2.010037e+03
  1.400491e+01    2.008731e+03
  1.405803e+01    2.002882e+03
  1.411115e+01    1.993641e+03
  1.416427e+01    1.988247e+03
  1.421738e+01    1.988588e+03
  1.427050e+01    1.980937e+03
  1.432362e+01    1.983246e+03
  1.437674e+01    1.984780e+03
  1.442986e+01    1.974264e+03
  1.448297e+01    1.965724e+03
  1.453609e+01    1.956128e+03
  1.458921e+01    1.945833e+03
  1.464233e+01    1.940633e+03
  1.469545e+01    1.936083e+03
  1.474857e+01    1.920801e+03
  1.480168e+01    1.936073e+03
  1.485480e+01    1.932738e+03
  1.490792e+01    1.923916e+03
  1.496104e+01    1.914717e+03
  1.501416e+01    1.910827e+03
  1.506727e+01    1.905068e+03
  1.512039e+01    1.901335e+03
  1.517351e+01    1.913573e+03
  1.522663e+01    1.925730e+03
  1.527975e+01    1.924569e+03
  1.533286e+01    1.907516e+03
  1.538598e+01    1.896036e+03
  1.543910e+01    1.884251e+03
  1.549222e+01    1.882979e+03
  1.554534e+01    1.887121e+03
  1.559846e+01    1.886196e+03
  1.565157e+01    1.878630e+03
  1.570469e+01    1.868854e+03
  1.575781e+01    1.865125e+03
  1.581093e+01    1.859750e+03
  1.586405e+01    1.857811e+03
  1.591716e+01    1.850110e+03
  1.597028e+01    1.843656e+03
  1.602340e+01    1.828539e+03
  1.607652e+01    1.816158e+03
  1.612964e+01    1.793264e+03
  1.618276e+01    1.781624e+03
  1.623587e+01    1.784264e+03
  1.628899e+01    1.802083e+03
  1.634211e+01    1.801410e+03
  1.639523e+01    1.797143e+03
  1.644835e+01    1.798293e+03
  1.650146e+01    1.792707e+03
  1.655458e+01    1.794099e+03
  1.660770e+01    1.789601e+03
  1.666082e+01    1.782957e+03
  1.671394e+01    1.779685e+03
  1.676706e+01    1.775561e+03
  1.682017e+01    1.788759e+03
  1.687329e+01    1.777913e+03
  1.692641e+01    1.771694e+03
  1.697953e+01    1.767586e+03
  1.703265e+01    1.763842e+03
  1.708576e+01    1.761095e+03
  1.713888e+01    1.751771e+03
  1.719200e+01    1.750760e+03
  1.724512e+01    1.741676e+03
  1.729824e+01    1.743361e+03
  1.735136e+01    1.737775e+03
  1.740447e+01    1.713095e+03
  1.745759e+01    1.721171e+03
  1.751071e+01    1.722296e+03
  1.756383e+01    1.731067e+03
  1.761695e+01    1.714530e+03
  1.767006e+01    1.711491e+03
  1.772318e+01    1.702013e+03
  1.777630e+01    1.702155e+03
  1.782942e+01    1.692929e+03
  1.788254e+01    1.690546e+03
  1.793565e+01    1.687956e+03
  1.798877e+01    1.684484e+03
  1.804189e+01    1.678096e+03
  1.809501e+01    1.672187e+03
  1.814813e+01    1.669110e+03
  1.820125e+01    1.664681e+03
  1.825436e+01    1.669885e+03
  1.830748e+01    1.663858e+03
  1.836060e+01    1.660416e+03
  1.841372e+01    1.656725e+03
  1.846684e+01    1.654442e+03
  1.851995e+01    1.633038e+03
  1.857307e+01    1.618575e+03
  1.862619e+01    1.605905e+03
  1.867931e+01    1.604479e+03
  1.873243e+01    1.624252e+03
  1.878555e+01    1.626244e+03
  1.883866e+01    1.624989e+03
  1.889178e+01    1.623970e+03
  1.894490e+01    1.636195e+03
  1.899802e+01    1.627022e+03
  1.905114e+01    1.621634e+03
  1.910425e+01    1.613966e+03
  1.915737e+01    1.610365e+03
  1.921049e+01    1.606033e+03
  1.926361e+01    1.602043e+03
  1.931673e+01    1.598428e+03
  1.936985e+01    1.596953e+03
  1.942296e+01    1.593650e+03
  1.947608e+01    1.593627e+03
  1.952920e+01    1.588761e+03
  1.958232e+01    1.589680e+03
  1.963544e+01    1.596432e+03
  1.968855e+01    1.578906e+03
  1.974167e+01    1.567329e+03
  1.979479e+01    1.573444e+03
  1.984791e+01    1.570964e+03
  1.990103e+01    1.568206e+03
  1.995414e+01    1.567827e+03
  2.000726e+01    1.565042e+03
  2.006038e+01    1.560059e+03
  2.011350e+01    1.555861e+03
  2.016662e+01    1.550115e+03
  2.021974e+01    1.553933e+03
  2.027285e+01    1.559826e+03
  2.032597e+01    1.543841e+03
  2.037909e+01    1.538743e+03
  2.043221e+01    1.533901e+03
  2.048533e+01    1.533304e+03
  2.053844e+01    1.533312e+03
  2.059156e+01    1.526441e+03
  2.064468e+01    1.523173e+03
  2.069780e+01    1.504701e+03
  2.075092e+01    1.477785e+03
  2.080404e+01    1.463141e+03
  2.085715e+01    1.484473e+03
  2.091027e+01    1.510887e+03
  2.096339e+01    1.519477e+03
  2.101651e+01    1.523544e+03
  2.106963e+01    1.527267e+03
  2.112274e+01    1.531300e+03
  2.117586e+01    1.532656e+03
  2.122898e+01    1.536383e+03
  2.128210e+01    1.533319e+03
  2.133522e+01    1.535684e+03
  2.138834e+01    1.531429e+03
  2.144145e+01    1.530665e+03
  2.149457e+01    1.532459e+03
  2.154769e+01    1.530804e+03
  2.160081e+01    1.529927e+03
  2.165393e+01    1.531377e+03
  2.170704e+01    1.530802e+03
  2.176016e+01    1.519920e+03
  2.181328e+01    1.529311e+03
  2.186640e+01    1.530726e+03
  2.191952e+01    1.529488e+03
  2.197263e+01    1.526516e+03
  2.202575e+01    1.523836e+03
  2.207887e+01    1.524481e+03
  2.213199e+01    1.520648e+03
  2.218511e+01    1.520338e+03
  2.223823e+01    1.521174e+03
  2.229134e+01    1.517489e+03
  2.234446e+01    1.515977e+03
  2.239758e+01    1.515216e+03
  2.245070e+01    1.514111e+03
  2.250382e+01    1.514824e+03
  2.255693e+01    1.512152e+03
  2.261005e+01    1.493390e+03
  2.266317e+01    1.479667e+03
  2.271629e+01    1.470487e+03
  2.276941e+01    1.460299e+03
  2.282253e+01    1.453940e+03
  2.287564e+01    1.449482e+03
  2.292876e+01    1.444676e+03
  2.298188e+01    1.442515e+03
  2.303500e+01    1.438286e+03
  2.308812e+01    1.435701e+03
  2.314123e+01    1.434999e+03
  2.319435e+01    1.429232e+03
  2.324747e+01    1.422990e+03
  2.330059e+01    1.419591e+03
  2.335371e+01    1.417772e+03
  2.340683e+01    1.411988e+03
  2.345994e+01    1.408229e+03
  2.351306e+01    1.403541e+03
  2.356618e+01    1.400666e+03
  2.361930e+01    1.395599e+03
  2.367242e+01    1.388906e+03
  2.372553e+01    1.384829e+03
  2.377865e+01    1.377970e+03
  2.383177e+01    1.374816e+03
  2.388489e+01    1.369317e+03
  2.393801e+01    1.364601e+03
  2.399113e+01    1.363325e+03
  2.404424e+01    1.360857e+03
  2.409736e+01    1.360654e+03
  2.415048e+01    1.355497e+03
  2.420360e+01    1.352746e+03
  2.425672e+01    1.347059e+03
  2.430983e+01    1.343294e+03
  2.436295e+01    1.341206e+03
  2.441607e+01    1.338975e+03
  2.446919e+01    1.339596e+03
  2.452231e+01    1.337237e+03
  2.457542e+01    1.334017e+03
  2.462854e+01    1.334073e+03
  2.468166e+01    1.332946e+03
  2.473478e+01    1.326146e+03
  2.478790e+01    1.320397e+03
  2.484102e+01    1.317562e+03
  2.489413e+01    1.311945e+03
  2.494725e+01    1.307332e+03
  2.500037e+01    1.302918e+03
  2.505349e+01    1.298064e+03
  2.510661e+01    1.290601e+03
  2.515972e+01    1.288886e+03
  2.521284e+01    1.289529e+03
  2.526596e+01    1.287174e+03
  2.531908e+01    1.281682e+03
  2.537220e+01    1.280353e+03
  2.542532e+01    1.275047e+03
  2.547843e+01    1.274972e+03
  2.553155e+01    1.269587e+03
  2.558467e+01    1.262611e+03
  2.563779e+01    1.254498e+03
  2.569091e+01    1.247975e+03
  2.574402e+01    1.240611e+03
  2.579714e+01    1.229704e+03
  2.585026e+01    1.222027e+03
  2.590338e+01    1.213167e+03
  2.595650e+01    1.216330e+03
  2.600962e+01    1.211506e+03
  2.606273e+01    1.211202e+03
  2.611585e+01    1.212413e+03
  2.616897e+01    1.209932e+03
  2.622209e+01    1.209035e+03
  2.627521e+01    1.205103e+03
  2.632832e+01    1.196853e+03
  2.638144e+01    1.196173e+03
  2.643456e+01    1.184801e+03
  2.648768e+01    1.179685e+03
  2.654080e+01    1.153877e+03
