# == pyFAI calibration ==
# Distance Sample to Detector: 0.2946421923531691 m
# PONI: 2.875e-01, 2.439e-01 m
# Rotations: -0.010990 -0.009181 0.000003 rad
# 
# == Fit2d calibration ==
# Distance Sample-beamCenter: 294.672 mm
# Center: x=1436.809, y=1655.851 pix
# Tilt: 0.820 deg  TiltPlanRot: -39.874 deg
# 
# Detector Pilatus 2M	 PixelSize= 1.720e-04, 1.720e-04 m
#    Detector has a mask: True 
#    Detector has a dark current: False 
#    detector has a flat field: False 
# 
# Wavelength: 2.0732883349524408e-11 m
# Mask applied: from detector
# Dark current applied: False
# Flat field applied: False
# Polarization factor: None
# Normalization factor: 1.0
# --> /gpfs/current/raw/FMue_3/FMue_3_20231024_175355_00063.dat
#        q_A^-1             I 
  3.483473e-02             nan
  8.795289e-02             nan
  1.410711e-01             nan
  1.941892e-01             nan
  2.473074e-01             nan
  3.004255e-01             nan
  3.535437e-01             nan
  4.066619e-01    1.240639e+04
  4.597800e-01    1.145500e+04
  5.128982e-01    9.990627e+03
  5.660163e-01    9.245413e+03
  6.191345e-01    9.013402e+03
  6.722527e-01    8.972283e+03
  7.253708e-01    9.158078e+03
  7.784890e-01    9.553737e+03
  8.316071e-01    1.054570e+04
  8.847253e-01    1.253705e+04
  9.378435e-01    1.466670e+04
  9.909616e-01    1.392361e+04
  1.044080e+00    1.165803e+04
  1.097198e+00    1.054367e+04
  1.150316e+00    1.065792e+04
  1.203434e+00    1.129391e+04
  1.256552e+00    1.224475e+04
  1.309671e+00    1.291317e+04
  1.362789e+00    1.382641e+04
  1.415907e+00    1.450996e+04
  1.469025e+00    1.476611e+04
  1.522143e+00    1.468811e+04
  1.575261e+00    1.413397e+04
  1.628380e+00    1.342522e+04
  1.681498e+00    1.253818e+04
  1.734616e+00    1.167129e+04
  1.787734e+00    1.098534e+04
  1.840852e+00    1.046251e+04
  1.893970e+00    9.915133e+03
  1.947089e+00    9.550458e+03
  2.000207e+00    8.966729e+03
  2.053325e+00    8.203486e+03
  2.106443e+00    7.983253e+03
  2.159561e+00    8.137037e+03
  2.212679e+00    8.340333e+03
  2.265797e+00    8.645493e+03
  2.318916e+00    8.768524e+03
  2.372034e+00    9.113966e+03
  2.425152e+00    9.079155e+03
  2.478270e+00    8.986323e+03
  2.531388e+00    9.664793e+03
  2.584506e+00    1.016111e+04
  2.637625e+00    9.815437e+03
  2.690743e+00    9.147803e+03
  2.743861e+00    8.540104e+03
  2.796979e+00    7.394658e+03
  2.850097e+00    6.430633e+03
  2.903215e+00    6.073162e+03
  2.956334e+00    5.936310e+03
  3.009452e+00    5.989606e+03
  3.062570e+00    6.605098e+03
  3.115688e+00    8.472219e+03
  3.168806e+00    9.158443e+03
  3.221924e+00    7.932323e+03
  3.275043e+00    6.554098e+03
  3.328161e+00    5.954616e+03
  3.381279e+00    6.069708e+03
  3.434397e+00    5.651599e+03
  3.487515e+00    5.401057e+03
  3.540633e+00    5.329868e+03
  3.593751e+00    5.171575e+03
  3.646870e+00    5.157506e+03
  3.699988e+00    5.207523e+03
  3.753106e+00    5.323104e+03
  3.806224e+00    5.358641e+03
  3.859342e+00    5.342580e+03
  3.912460e+00    5.400800e+03
  3.965579e+00    5.578062e+03
  4.018697e+00    6.077413e+03
  4.071815e+00    7.134270e+03
  4.124933e+00    7.943611e+03
  4.178051e+00    7.500663e+03
  4.231169e+00    6.893634e+03
  4.284288e+00    6.715842e+03
  4.337406e+00    7.015070e+03
  4.390524e+00    7.659678e+03
  4.443642e+00    9.926403e+03
  4.496760e+00    1.210844e+04
  4.549878e+00    9.264101e+03
  4.602997e+00    6.237732e+03
  4.656115e+00    5.548600e+03
  4.709233e+00    5.545353e+03
  4.762351e+00    5.801601e+03
  4.815469e+00    5.710288e+03
  4.868587e+00    5.496151e+03
  4.921705e+00    5.429805e+03
  4.974824e+00    5.417264e+03
  5.027942e+00    5.346401e+03
  5.081060e+00    5.295445e+03
  5.134178e+00    5.187314e+03
  5.187296e+00    5.049108e+03
  5.240414e+00    4.862979e+03
  5.293533e+00    4.727866e+03
  5.346651e+00    4.567634e+03
  5.399769e+00    4.428359e+03
  5.452887e+00    4.435102e+03
  5.506005e+00    4.478956e+03
  5.559123e+00    4.135571e+03
  5.612242e+00    3.848353e+03
  5.665360e+00    3.751864e+03
  5.718478e+00    3.630553e+03
  5.771596e+00    3.538881e+03
  5.824714e+00    3.512738e+03
  5.877832e+00    3.549944e+03
  5.930951e+00    3.641389e+03
  5.984069e+00    3.752781e+03
  6.037187e+00    3.820554e+03
  6.090305e+00    3.822205e+03
  6.143423e+00    3.766042e+03
  6.196541e+00    3.867758e+03
  6.249660e+00    4.142609e+03
  6.302778e+00    4.249174e+03
  6.355896e+00    4.013491e+03
  6.409014e+00    3.837559e+03
  6.462132e+00    3.731309e+03
  6.515250e+00    3.613586e+03
  6.568368e+00    3.562255e+03
  6.621487e+00    3.514241e+03
  6.674605e+00    3.471561e+03
  6.727723e+00    3.486967e+03
  6.780841e+00    3.468996e+03
  6.833959e+00    3.423562e+03
  6.887077e+00    3.381397e+03
  6.940196e+00    3.336756e+03
  6.993314e+00    3.384280e+03
  7.046432e+00    3.462514e+03
  7.099550e+00    3.449528e+03
  7.152668e+00    3.382369e+03
  7.205786e+00    3.301963e+03
  7.258905e+00    3.211128e+03
  7.312023e+00    3.169652e+03
  7.365141e+00    3.158661e+03
  7.418259e+00    3.170739e+03
  7.471377e+00    3.196473e+03
  7.524495e+00    3.228792e+03
  7.577614e+00    3.250619e+03
  7.630732e+00    3.269699e+03
  7.683850e+00    3.398761e+03
  7.736968e+00    3.625003e+03
  7.790086e+00    3.639846e+03
  7.843204e+00    3.423202e+03
  7.896322e+00    3.200842e+03
  7.949441e+00    3.071997e+03
  8.002559e+00    3.024421e+03
  8.055677e+00    3.027742e+03
  8.108795e+00    3.051750e+03
  8.161913e+00    3.097293e+03
  8.215031e+00    3.100221e+03
  8.268150e+00    3.055777e+03
  8.321268e+00    3.007364e+03
  8.374386e+00    2.984391e+03
  8.427504e+00    2.969044e+03
  8.480622e+00    2.952884e+03
  8.533740e+00    2.897929e+03
  8.586859e+00    2.926395e+03
  8.639977e+00    2.912372e+03
  8.693095e+00    2.890716e+03
  8.746213e+00    2.871825e+03
  8.799331e+00    2.845607e+03
  8.852449e+00    2.831213e+03
  8.905568e+00    2.851136e+03
  8.958686e+00    2.867204e+03
  9.011804e+00    2.874295e+03
  9.064922e+00    2.802014e+03
  9.118040e+00    2.714946e+03
  9.171158e+00    2.673957e+03
  9.224276e+00    2.658766e+03
  9.277395e+00    2.635828e+03
  9.330513e+00    2.631357e+03
  9.383631e+00    2.630422e+03
  9.436749e+00    2.627423e+03
  9.489867e+00    2.636291e+03
  9.542985e+00    2.626082e+03
  9.596104e+00    2.592928e+03
  9.649222e+00    2.569975e+03
  9.702340e+00    2.558134e+03
  9.755458e+00    2.550773e+03
  9.808576e+00    2.543771e+03
  9.861694e+00    2.550114e+03
  9.914813e+00    2.558764e+03
  9.967931e+00    2.554816e+03
  1.002105e+01    2.512371e+03
  1.007417e+01    2.459641e+03
  1.012729e+01    2.428138e+03
  1.018040e+01    2.429484e+03
  1.023352e+01    2.427449e+03
  1.028664e+01    2.411449e+03
  1.033976e+01    2.404872e+03
  1.039288e+01    2.426760e+03
  1.044599e+01    2.415159e+03
  1.049911e+01    2.409182e+03
  1.055223e+01    2.386069e+03
  1.060535e+01    2.381584e+03
  1.065847e+01    2.375868e+03
  1.071158e+01    2.372028e+03
  1.076470e+01    2.364938e+03
  1.081782e+01    2.367407e+03
  1.087094e+01    2.352360e+03
  1.092406e+01    2.354329e+03
  1.097718e+01    2.349012e+03
  1.103029e+01    2.339604e+03
  1.108341e+01    2.327029e+03
  1.113653e+01    2.311088e+03
  1.118965e+01    2.299272e+03
  1.124277e+01    2.288690e+03
  1.129588e+01    2.282281e+03
  1.134900e+01    2.270342e+03
  1.140212e+01    2.263518e+03
  1.145524e+01    2.251999e+03
  1.150836e+01    2.250322e+03
  1.156148e+01    2.239999e+03
  1.161459e+01    2.243403e+03
  1.166771e+01    2.238091e+03
  1.172083e+01    2.257892e+03
  1.177395e+01    2.249183e+03
  1.182707e+01    2.248492e+03
  1.188018e+01    2.254655e+03
  1.193330e+01    2.240999e+03
  1.198642e+01    2.226233e+03
  1.203954e+01    2.204051e+03
  1.209266e+01    2.197955e+03
  1.214578e+01    2.190527e+03
  1.219889e+01    2.190748e+03
  1.225201e+01    2.191162e+03
  1.230513e+01    2.186188e+03
  1.235825e+01    2.193070e+03
  1.241137e+01    2.182717e+03
  1.246448e+01    2.185048e+03
  1.251760e+01    2.183497e+03
  1.257072e+01    2.178152e+03
  1.262384e+01    2.181135e+03
  1.267696e+01    2.164072e+03
  1.273008e+01    2.147499e+03
  1.278319e+01    2.139500e+03
  1.283631e+01    2.127734e+03
  1.288943e+01    2.122206e+03
  1.294255e+01    2.107509e+03
  1.299567e+01    2.102095e+03
  1.304878e+01    2.092586e+03
  1.310190e+01    2.087223e+03
  1.315502e+01    2.079064e+03
  1.320814e+01    2.054289e+03
  1.326126e+01    2.025148e+03
  1.331437e+01    2.010017e+03
  1.336749e+01    2.000370e+03
  1.342061e+01    1.988844e+03
  1.347373e+01    2.014170e+03
  1.352685e+01    2.017622e+03
  1.357997e+01    2.009120e+03
  1.363308e+01    1.996645e+03
  1.368620e+01    1.987840e+03
  1.373932e+01    1.977970e+03
  1.379244e+01    1.970593e+03
  1.384556e+01    1.966357e+03
  1.389867e+01    1.960779e+03
  1.395179e+01    1.950418e+03
  1.400491e+01    1.950899e+03
  1.405803e+01    1.945760e+03
  1.411115e+01    1.938790e+03
  1.416427e+01    1.928255e+03
  1.421738e+01    1.925359e+03
  1.427050e+01    1.921140e+03
  1.432362e+01    1.922943e+03
  1.437674e+01    1.922522e+03
  1.442986e+01    1.908708e+03
  1.448297e+01    1.902110e+03
  1.453609e+01    1.895203e+03
  1.458921e+01    1.883645e+03
  1.464233e+01    1.882566e+03
  1.469545e+01    1.876578e+03
  1.474857e+01    1.857343e+03
  1.480168e+01    1.869639e+03
  1.485480e+01    1.867535e+03
  1.490792e+01    1.863032e+03
  1.496104e+01    1.854823e+03
  1.501416e+01    1.852083e+03
  1.506727e+01    1.848328e+03
  1.512039e+01    1.845025e+03
  1.517351e+01    1.856689e+03
  1.522663e+01    1.868948e+03
  1.527975e+01    1.864157e+03
  1.533286e+01    1.847376e+03
  1.538598e+01    1.836163e+03
  1.543910e+01    1.828609e+03
  1.549222e+01    1.825811e+03
  1.554534e+01    1.825762e+03
  1.559846e+01    1.822609e+03
  1.565157e+01    1.817219e+03
  1.570469e+01    1.809334e+03
  1.575781e+01    1.805073e+03
  1.581093e+01    1.802100e+03
  1.586405e+01    1.799788e+03
  1.591716e+01    1.793448e+03
  1.597028e+01    1.789123e+03
  1.602340e+01    1.774025e+03
  1.607652e+01    1.762675e+03
  1.612964e+01    1.739591e+03
  1.618276e+01    1.727454e+03
  1.623587e+01    1.729668e+03
  1.628899e+01    1.746718e+03
  1.634211e+01    1.745263e+03
  1.639523e+01    1.740318e+03
  1.644835e+01    1.742553e+03
  1.650146e+01    1.734810e+03
  1.655458e+01    1.733923e+03
  1.660770e+01    1.728050e+03
  1.666082e+01    1.723761e+03
  1.671394e+01    1.723819e+03
  1.676706e+01    1.718073e+03
  1.682017e+01    1.731190e+03
  1.687329e+01    1.720265e+03
  1.692641e+01    1.715188e+03
  1.697953e+01    1.709385e+03
  1.703265e+01    1.703784e+03
  1.708576e+01    1.702755e+03
  1.713888e+01    1.694321e+03
  1.719200e+01    1.693689e+03
  1.724512e+01    1.685751e+03
  1.729824e+01    1.687348e+03
  1.735136e+01    1.680303e+03
  1.740447e+01    1.658100e+03
  1.745759e+01    1.666859e+03
  1.751071e+01    1.667126e+03
  1.756383e+01    1.677205e+03
  1.761695e+01    1.660297e+03
  1.767006e+01    1.656908e+03
  1.772318e+01    1.646743e+03
  1.777630e+01    1.648123e+03
  1.782942e+01    1.638173e+03
  1.788254e+01    1.634175e+03
  1.793565e+01    1.632059e+03
  1.798877e+01    1.629846e+03
  1.804189e+01    1.624269e+03
  1.809501e+01    1.617707e+03
  1.814813e+01    1.616213e+03
  1.820125e+01    1.611165e+03
  1.825436e+01    1.617386e+03
  1.830748e+01    1.610832e+03
  1.836060e+01    1.605372e+03
  1.841372e+01    1.602975e+03
  1.846684e+01    1.598618e+03
  1.851995e+01    1.579786e+03
  1.857307e+01    1.564616e+03
  1.862619e+01    1.554547e+03
  1.867931e+01    1.551825e+03
  1.873243e+01    1.570292e+03
  1.878555e+01    1.573606e+03
  1.883866e+01    1.572646e+03
  1.889178e+01    1.571131e+03
  1.894490e+01    1.582967e+03
  1.899802e+01    1.573361e+03
  1.905114e+01    1.567970e+03
  1.910425e+01    1.563452e+03
  1.915737e+01    1.557947e+03
  1.921049e+01    1.554141e+03
  1.926361e+01    1.549806e+03
  1.931673e+01    1.548055e+03
  1.936985e+01    1.545120e+03
  1.942296e+01    1.542360e+03
  1.947608e+01    1.543046e+03
  1.952920e+01    1.538649e+03
  1.958232e+01    1.539595e+03
  1.963544e+01    1.545569e+03
  1.968855e+01    1.530537e+03
  1.974167e+01    1.518917e+03
  1.979479e+01    1.521999e+03
  1.984791e+01    1.522244e+03
  1.990103e+01    1.519328e+03
  1.995414e+01    1.517729e+03
  2.000726e+01    1.515716e+03
  2.006038e+01    1.511504e+03
  2.011350e+01    1.506482e+03
  2.016662e+01    1.500585e+03
  2.021974e+01    1.504180e+03
  2.027285e+01    1.509865e+03
  2.032597e+01    1.494143e+03
  2.037909e+01    1.489811e+03
  2.043221e+01    1.485953e+03
  2.048533e+01    1.482161e+03
  2.053844e+01    1.481785e+03
  2.059156e+01    1.476289e+03
  2.064468e+01    1.473090e+03
  2.069780e+01    1.455219e+03
  2.075092e+01    1.429387e+03
  2.080404e+01    1.416257e+03
  2.085715e+01    1.435239e+03
  2.091027e+01    1.462132e+03
  2.096339e+01    1.468205e+03
  2.101651e+01    1.474531e+03
  2.106963e+01    1.477674e+03
  2.112274e+01    1.481437e+03
  2.117586e+01    1.482957e+03
  2.122898e+01    1.485300e+03
  2.128210e+01    1.484149e+03
  2.133522e+01    1.484903e+03
  2.138834e+01    1.481310e+03
  2.144145e+01    1.482145e+03
  2.149457e+01    1.482469e+03
  2.154769e+01    1.481975e+03
  2.160081e+01    1.480513e+03
  2.165393e+01    1.481308e+03
  2.170704e+01    1.481855e+03
  2.176016e+01    1.471672e+03
  2.181328e+01    1.480528e+03
  2.186640e+01    1.480894e+03
  2.191952e+01    1.480187e+03
  2.197263e+01    1.476430e+03
  2.202575e+01    1.474482e+03
  2.207887e+01    1.474758e+03
  2.213199e+01    1.472326e+03
  2.218511e+01    1.471385e+03
  2.223823e+01    1.471032e+03
  2.229134e+01    1.468739e+03
  2.234446e+01    1.468125e+03
  2.239758e+01    1.468287e+03
  2.245070e+01    1.465487e+03
  2.250382e+01    1.467201e+03
  2.255693e+01    1.463011e+03
  2.261005e+01    1.444828e+03
  2.266317e+01    1.432324e+03
  2.271629e+01    1.423455e+03
  2.276941e+01    1.413683e+03
  2.282253e+01    1.406667e+03
  2.287564e+01    1.403026e+03
  2.292876e+01    1.398533e+03
  2.298188e+01    1.394593e+03
  2.303500e+01    1.392371e+03
  2.308812e+01    1.389271e+03
  2.314123e+01    1.387150e+03
  2.319435e+01    1.381491e+03
  2.324747e+01    1.376201e+03
  2.330059e+01    1.371982e+03
  2.335371e+01    1.370979e+03
  2.340683e+01    1.365404e+03
  2.345994e+01    1.361650e+03
  2.351306e+01    1.360669e+03
  2.356618e+01    1.355043e+03
  2.361930e+01    1.348744e+03
  2.367242e+01    1.345379e+03
  2.372553e+01    1.338654e+03
  2.377865e+01    1.333985e+03
  2.383177e+01    1.328728e+03
  2.388489e+01    1.325753e+03
  2.393801e+01    1.319260e+03
  2.399113e+01    1.319318e+03
  2.404424e+01    1.315654e+03
  2.409736e+01    1.315462e+03
  2.415048e+01    1.311966e+03
  2.420360e+01    1.309970e+03
  2.425672e+01    1.303847e+03
  2.430983e+01    1.302319e+03
  2.436295e+01    1.300138e+03
  2.441607e+01    1.296552e+03
  2.446919e+01    1.295783e+03
  2.452231e+01    1.293188e+03
  2.457542e+01    1.292836e+03
  2.462854e+01    1.289281e+03
  2.468166e+01    1.287427e+03
  2.473478e+01    1.282596e+03
  2.478790e+01    1.276378e+03
  2.484102e+01    1.274524e+03
  2.489413e+01    1.267905e+03
  2.494725e+01    1.265073e+03
  2.500037e+01    1.259359e+03
  2.505349e+01    1.255585e+03
  2.510661e+01    1.249985e+03
  2.515972e+01    1.247966e+03
  2.521284e+01    1.245635e+03
  2.526596e+01    1.245640e+03
  2.531908e+01    1.240248e+03
  2.537220e+01    1.237236e+03
  2.542532e+01    1.234080e+03
  2.547843e+01    1.234457e+03
  2.553155e+01    1.229768e+03
  2.558467e+01    1.219270e+03
  2.563779e+01    1.211423e+03
  2.569091e+01    1.208870e+03
  2.574402e+01    1.198801e+03
  2.579714e+01    1.194458e+03
  2.585026e+01    1.182695e+03
  2.590338e+01    1.179673e+03
  2.595650e+01    1.178783e+03
  2.600962e+01    1.175734e+03
  2.606273e+01    1.173224e+03
  2.611585e+01    1.174160e+03
  2.616897e+01    1.171183e+03
  2.622209e+01    1.173159e+03
  2.627521e+01    1.164198e+03
  2.632832e+01    1.155768e+03
  2.638144e+01    1.157164e+03
  2.643456e+01    1.149420e+03
  2.648768e+01    1.123772e+03
  2.654080e+01    1.109429e+03
