# == pyFAI calibration ==
# Distance Sample to Detector: 0.2945755399789714 m
# PONI: 2.880e-01, 2.450e-01 m
# Rotations: -0.007291 -0.010887 -0.000000 rad
# 
# == Fit2d calibration ==
# Distance Sample-beamCenter: 294.601 mm
# Center: x=1437.174, y=1655.617 pix
# Tilt: 0.751 deg  TiltPlanRot: -56.193 deg
# 
# Detector Pilatus CdTe 2M	 PixelSize= 1.720e-04, 1.720e-04 m
#    Detector has a mask: True 
#    Detector has a dark current: False 
#    detector has a flat field: False 
# 
# Wavelength: 2.0732883349524408e-11 m
# Mask applied: from detector
# Dark current applied: False
# Flat field applied: False
# Polarization factor: 0.9000000000000002
# Normalization factor: 1.0
# --> /gpfs/current/raw/FMue_2_third_run/FMue_2_third_20231024_085044_00010.dat
#        q_A^-1             I 
  2.814346e-01    8.161914e+04
  3.339406e-01    4.647898e+04
  3.864466e-01    3.461771e+04
  4.389526e-01    2.861709e+04
  4.914586e-01    2.470336e+04
  5.439646e-01    2.239281e+04
  5.964706e-01    2.078925e+04
  6.489766e-01    1.937788e+04
  7.014826e-01    1.831417e+04
  7.539886e-01    1.734157e+04
  8.064947e-01    1.659136e+04
  8.590007e-01    1.591871e+04
  9.115067e-01    1.540258e+04
  9.640127e-01    1.498444e+04
  1.016519e+00    1.469250e+04
  1.069025e+00    1.459711e+04
  1.121531e+00    1.469751e+04
  1.174037e+00    1.494189e+04
  1.226543e+00    1.542246e+04
  1.279049e+00    1.630845e+04
  1.331555e+00    1.746664e+04
  1.384061e+00    1.794621e+04
  1.436567e+00    1.791518e+04
  1.489073e+00    1.773271e+04
  1.541579e+00    1.725448e+04
  1.594085e+00    1.653937e+04
  1.646591e+00    1.571055e+04
  1.699097e+00    1.470628e+04
  1.751603e+00    1.375726e+04
  1.804109e+00    1.289673e+04
  1.856615e+00    1.220140e+04
  1.909121e+00    1.166434e+04
  1.961627e+00    1.124961e+04
  2.014133e+00    1.097561e+04
  2.066639e+00    1.100833e+04
  2.119145e+00    1.175686e+04
  2.171651e+00    1.323409e+04
  2.224157e+00    1.309933e+04
  2.276663e+00    1.150179e+04
  2.329169e+00    1.057903e+04
  2.381675e+00    1.037352e+04
  2.434181e+00    1.087022e+04
  2.486687e+00    1.315050e+04
  2.539193e+00    1.870269e+04
  2.591699e+00    2.043242e+04
  2.644205e+00    1.507173e+04
  2.696711e+00    1.139313e+04
  2.749217e+00    9.788480e+03
  2.801723e+00    8.509090e+03
  2.854229e+00    7.682967e+03
  2.906735e+00    7.345283e+03
  2.959241e+00    7.275798e+03
  3.011747e+00    7.711642e+03
  3.064253e+00    9.356749e+03
  3.116759e+00    1.160878e+04
  3.169265e+00    1.176512e+04
  3.221771e+00    9.967337e+03
  3.274277e+00    7.686968e+03
  3.326783e+00    6.701195e+03
  3.379289e+00    6.462367e+03
  3.431795e+00    6.354017e+03
  3.484301e+00    6.312292e+03
  3.536807e+00    6.277352e+03
  3.589313e+00    6.249842e+03
  3.641819e+00    6.350251e+03
  3.694325e+00    6.534376e+03
  3.746831e+00    7.008178e+03
  3.799337e+00    7.520514e+03
  3.851843e+00    7.435102e+03
  3.904349e+00    7.465826e+03
  3.956855e+00    8.498360e+03
  4.009361e+00    1.035378e+04
  4.061867e+00    1.062875e+04
  4.114373e+00    9.164799e+03
  4.166879e+00    8.096455e+03
  4.219385e+00    7.663224e+03
  4.271891e+00    7.843805e+03
  4.324397e+00    9.452305e+03
  4.376903e+00    1.321690e+04
  4.429409e+00    1.508057e+04
  4.481915e+00    1.424296e+04
  4.534421e+00    1.135911e+04
  4.586927e+00    8.291312e+03
  4.639433e+00    6.896919e+03
  4.691939e+00    6.424163e+03
  4.744445e+00    6.237639e+03
  4.796951e+00    6.184148e+03
  4.849457e+00    6.299865e+03
  4.901963e+00    6.452300e+03
  4.954469e+00    6.512645e+03
  5.006975e+00    6.700093e+03
  5.059481e+00    7.233525e+03
  5.111987e+00    7.524407e+03
  5.164493e+00    7.011300e+03
  5.216999e+00    6.258903e+03
  5.269505e+00    5.773802e+03
  5.322011e+00    5.584275e+03
  5.374517e+00    5.590082e+03
  5.427023e+00    5.477244e+03
  5.479529e+00    5.398084e+03
  5.532035e+00    5.172731e+03
  5.584541e+00    4.792937e+03
  5.637047e+00    4.601479e+03
  5.689553e+00    4.574855e+03
  5.742059e+00    4.726114e+03
  5.794565e+00    4.968347e+03
  5.847071e+00    5.128918e+03
  5.899577e+00    5.437061e+03
  5.952083e+00    5.931467e+03
  6.004589e+00    5.758206e+03
  6.057095e+00    5.193128e+03
  6.109601e+00    4.930792e+03
  6.162107e+00    4.948305e+03
  6.214613e+00    5.058954e+03
  6.267119e+00    4.974098e+03
  6.319625e+00    4.808216e+03
  6.372131e+00    4.655694e+03
  6.424637e+00    4.483948e+03
  6.477143e+00    4.336388e+03
  6.529649e+00    4.341125e+03
  6.582155e+00    4.449940e+03
  6.634661e+00    4.597464e+03
  6.687167e+00    4.853686e+03
  6.739673e+00    5.023052e+03
  6.792179e+00    4.735219e+03
  6.844685e+00    4.355499e+03
  6.897191e+00    4.182294e+03
  6.949697e+00    4.230898e+03
  7.002203e+00    4.172109e+03
  7.054709e+00    4.138457e+03
  7.107215e+00    4.083994e+03
  7.159721e+00    3.982617e+03
  7.212227e+00    3.894809e+03
  7.264733e+00    3.895336e+03
  7.317239e+00    4.012581e+03
  7.369745e+00    4.196773e+03
  7.422251e+00    4.287595e+03
  7.474757e+00    4.233472e+03
  7.527263e+00    4.316358e+03
  7.579769e+00    4.643894e+03
  7.632275e+00    4.743684e+03
  7.684781e+00    4.539943e+03
  7.737287e+00    4.519436e+03
  7.789793e+00    4.475280e+03
  7.842299e+00    4.259985e+03
  7.894805e+00    4.147143e+03
  7.947311e+00    4.119308e+03
  7.999817e+00    4.228477e+03
  8.052323e+00    4.222034e+03
  8.104829e+00    4.021940e+03
  8.157335e+00    3.817833e+03
  8.209841e+00    3.702719e+03
  8.262347e+00    3.644953e+03
  8.314853e+00    3.589935e+03
  8.367359e+00    3.547952e+03
  8.419865e+00    3.528932e+03
  8.472371e+00    3.534621e+03
  8.524877e+00    3.545236e+03
  8.577383e+00    3.573122e+03
  8.629889e+00    3.563690e+03
  8.682395e+00    3.522431e+03
  8.734901e+00    3.543834e+03
  8.787407e+00    3.576483e+03
  8.839913e+00    3.524584e+03
  8.892419e+00    3.474127e+03
  8.944925e+00    3.469714e+03
  8.997431e+00    3.474974e+03
  9.049937e+00    3.461774e+03
  9.102443e+00    3.484174e+03
  9.154949e+00    3.508973e+03
  9.207455e+00    3.440750e+03
  9.259961e+00    3.332091e+03
  9.312467e+00    3.266964e+03
  9.364973e+00    3.212570e+03
  9.417480e+00    3.167105e+03
  9.469986e+00    3.187785e+03
  9.522492e+00    3.227603e+03
  9.574998e+00    3.268940e+03
  9.627504e+00    3.310286e+03
  9.680010e+00    3.316840e+03
  9.732516e+00    3.283633e+03
  9.785022e+00    3.272873e+03
  9.837528e+00    3.259179e+03
  9.890034e+00    3.202737e+03
  9.942540e+00    3.154506e+03
  9.995046e+00    3.156245e+03
  1.004755e+01    3.175714e+03
  1.010006e+01    3.179770e+03
  1.015256e+01    3.175653e+03
  1.020507e+01    3.101509e+03
  1.025758e+01    3.006411e+03
  1.031008e+01    2.959314e+03
  1.036259e+01    2.962875e+03
  1.041509e+01    2.944948e+03
  1.046760e+01    2.939459e+03
  1.052011e+01    2.956396e+03
  1.057261e+01    2.966521e+03
  1.062512e+01    2.961692e+03
  1.067762e+01    2.930296e+03
  1.073013e+01    2.904702e+03
  1.078264e+01    2.891866e+03
  1.083514e+01    2.868949e+03
  1.088765e+01    2.869143e+03
  1.094015e+01    2.896451e+03
  1.099266e+01    2.943383e+03
  1.104517e+01    2.958469e+03
  1.109767e+01    2.936165e+03
  1.115018e+01    2.872474e+03
  1.120268e+01    2.830178e+03
  1.125519e+01    2.803730e+03
  1.130770e+01    2.795530e+03
  1.136020e+01    2.804101e+03
  1.141271e+01    2.834439e+03
  1.146521e+01    2.863368e+03
  1.151772e+01    2.883581e+03
  1.157023e+01    2.897895e+03
  1.162273e+01    2.902622e+03
  1.167524e+01    2.858198e+03
  1.172774e+01    2.840279e+03
  1.178025e+01    2.809530e+03
  1.183276e+01    2.816562e+03
  1.188526e+01    2.812840e+03
  1.193777e+01    2.781021e+03
  1.199027e+01    2.729465e+03
  1.204278e+01    2.689582e+03
  1.209529e+01    2.680015e+03
  1.214779e+01    2.686784e+03
  1.220030e+01    2.707582e+03
  1.225280e+01    2.731295e+03
  1.230531e+01    2.733127e+03
  1.235782e+01    2.706288e+03
  1.241032e+01    2.674505e+03
  1.246283e+01    2.657936e+03
  1.251533e+01    2.644061e+03
  1.256784e+01    2.653180e+03
  1.262035e+01    2.651590e+03
  1.267285e+01    2.645256e+03
  1.272536e+01    2.628674e+03
  1.277786e+01    2.610459e+03
  1.283037e+01    2.592893e+03
  1.288288e+01    2.584292e+03
  1.293538e+01    2.572712e+03
  1.298789e+01    2.574307e+03
  1.304039e+01    2.576706e+03
  1.309290e+01    2.580816e+03
  1.314541e+01    2.582096e+03
  1.319791e+01    2.573502e+03
  1.325042e+01    2.550925e+03
  1.330292e+01    2.553929e+03
  1.335543e+01    2.572578e+03
  1.340794e+01    2.586737e+03
  1.346044e+01    2.598098e+03
  1.351295e+01    2.556019e+03
  1.356545e+01    2.526039e+03
  1.361796e+01    2.505987e+03
  1.367047e+01    2.504258e+03
  1.372297e+01    2.506478e+03
  1.377548e+01    2.501393e+03
  1.382798e+01    2.485993e+03
  1.388049e+01    2.469990e+03
  1.393300e+01    2.449414e+03
  1.398550e+01    2.443124e+03
  1.403801e+01    2.441312e+03
  1.409051e+01    2.438645e+03
  1.414302e+01    2.431003e+03
  1.419553e+01    2.420487e+03
  1.424803e+01    2.404606e+03
  1.430054e+01    2.387965e+03
  1.435304e+01    2.386888e+03
  1.440555e+01    2.383745e+03
  1.445806e+01    2.383399e+03
  1.451056e+01    2.374707e+03
  1.456307e+01    2.362565e+03
  1.461557e+01    2.354575e+03
  1.466808e+01    2.347635e+03
  1.472059e+01    2.349337e+03
  1.477309e+01    2.350418e+03
  1.482560e+01    2.343050e+03
  1.487810e+01    2.329423e+03
  1.493061e+01    2.318835e+03
  1.498312e+01    2.309957e+03
  1.503562e+01    2.310569e+03
  1.508813e+01    2.310562e+03
  1.514063e+01    2.313274e+03
  1.519314e+01    2.327142e+03
  1.524565e+01    2.356322e+03
  1.529815e+01    2.337610e+03
  1.535066e+01    2.332136e+03
  1.540316e+01    2.330159e+03
  1.545567e+01    2.318220e+03
  1.550818e+01    2.316340e+03
  1.556068e+01    2.305505e+03
  1.561319e+01    2.295991e+03
  1.566569e+01    2.296906e+03
  1.571820e+01    2.298081e+03
  1.577071e+01    2.298709e+03
  1.582321e+01    2.295072e+03
  1.587572e+01    2.286286e+03
  1.592822e+01    2.277429e+03
  1.598073e+01    2.268973e+03
  1.603324e+01    2.251281e+03
  1.608574e+01    2.233718e+03
  1.613825e+01    2.220847e+03
  1.619075e+01    2.221866e+03
  1.624326e+01    2.236737e+03
  1.629577e+01    2.232406e+03
  1.634827e+01    2.226598e+03
  1.640078e+01    2.222356e+03
  1.645328e+01    2.218015e+03
  1.650579e+01    2.219887e+03
  1.655830e+01    2.221403e+03
  1.661080e+01    2.220075e+03
  1.666331e+01    2.216674e+03
  1.671581e+01    2.209094e+03
  1.676832e+01    2.205000e+03
  1.682083e+01    2.199902e+03
  1.687333e+01    2.199616e+03
  1.692584e+01    2.199581e+03
  1.697834e+01    2.198031e+03
  1.703085e+01    2.193244e+03
  1.708336e+01    2.194124e+03
  1.713586e+01    2.189284e+03
  1.718837e+01    2.184338e+03
  1.724087e+01    2.176387e+03
  1.729338e+01    2.167011e+03
  1.734589e+01    2.160464e+03
  1.739839e+01    2.155933e+03
  1.745090e+01    2.153502e+03
  1.750340e+01    2.151418e+03
  1.755591e+01    2.144530e+03
  1.760842e+01    2.144208e+03
  1.766092e+01    2.138657e+03
  1.771343e+01    2.140120e+03
  1.776593e+01    2.134713e+03
  1.781844e+01    2.127890e+03
  1.787095e+01    2.124303e+03
  1.792345e+01    2.118366e+03
  1.797596e+01    2.116505e+03
  1.802846e+01    2.113259e+03
  1.808097e+01    2.105309e+03
  1.813348e+01    2.098307e+03
  1.818598e+01    2.089905e+03
  1.823849e+01    2.092525e+03
  1.829099e+01    2.083395e+03
  1.834350e+01    2.076468e+03
  1.839601e+01    2.071176e+03
  1.844851e+01    2.066488e+03
  1.850102e+01    2.064522e+03
  1.855352e+01    2.054406e+03
  1.860603e+01    2.053269e+03
  1.865854e+01    2.064307e+03
  1.871104e+01    2.071677e+03
  1.876355e+01    2.061854e+03
  1.881605e+01    2.056936e+03
  1.886856e+01    2.054906e+03
  1.892107e+01    2.049950e+03
  1.897357e+01    2.046002e+03
  1.902608e+01    2.038393e+03
  1.907858e+01    2.035922e+03
  1.913109e+01    2.028692e+03
  1.918360e+01    2.026951e+03
  1.923610e+01    2.020099e+03
  1.928861e+01    2.014110e+03
  1.934111e+01    2.009854e+03
  1.939362e+01    2.000489e+03
  1.944613e+01    1.996421e+03
  1.949863e+01    1.991030e+03
  1.955114e+01    1.983353e+03
  1.960364e+01    1.979491e+03
  1.965615e+01    1.973379e+03
  1.970866e+01    1.971324e+03
  1.976116e+01    1.965451e+03
  1.981367e+01    1.960837e+03
  1.986617e+01    1.954266e+03
  1.991868e+01    1.947589e+03
  1.997119e+01    1.942861e+03
  2.002369e+01    1.938456e+03
  2.007620e+01    1.932684e+03
  2.012870e+01    1.926947e+03
  2.018121e+01    1.920936e+03
  2.023372e+01    1.916961e+03
  2.028622e+01    1.906294e+03
  2.033873e+01    1.899491e+03
  2.039123e+01    1.894931e+03
  2.044374e+01    1.887826e+03
  2.049625e+01    1.882303e+03
  2.054875e+01    1.877685e+03
  2.060126e+01    1.871876e+03
  2.065376e+01    1.868172e+03
  2.070627e+01    1.860293e+03
  2.075878e+01    1.855687e+03
  2.081128e+01    1.863936e+03
  2.086379e+01    1.858876e+03
  2.091629e+01    1.844738e+03
  2.096880e+01    1.833483e+03
  2.102131e+01    1.825162e+03
  2.107381e+01    1.814913e+03
  2.112632e+01    1.803279e+03
  2.117882e+01    1.797227e+03
  2.123133e+01    1.782937e+03
  2.128384e+01    1.773888e+03
  2.133634e+01    1.765284e+03
  2.138885e+01    1.752556e+03
  2.144135e+01    1.745673e+03
  2.149386e+01    1.736309e+03
  2.154637e+01    1.730614e+03
  2.159887e+01    1.723089e+03
  2.165138e+01    1.714229e+03
  2.170388e+01    1.707510e+03
  2.175639e+01    1.701805e+03
  2.180890e+01    1.694557e+03
  2.186140e+01    1.685385e+03
  2.191391e+01    1.676994e+03
  2.196641e+01    1.670950e+03
  2.201892e+01    1.660285e+03
  2.207143e+01    1.651531e+03
  2.212393e+01    1.642763e+03
  2.217644e+01    1.632173e+03
  2.222894e+01    1.625072e+03
  2.228145e+01    1.615659e+03
  2.233396e+01    1.608972e+03
  2.238646e+01    1.597836e+03
  2.243897e+01    1.591669e+03
  2.249147e+01    1.583223e+03
  2.254398e+01    1.578701e+03
  2.259649e+01    1.581740e+03
  2.264899e+01    1.579803e+03
  2.270150e+01    1.578613e+03
  2.275400e+01    1.581542e+03
  2.280651e+01    1.579009e+03
  2.285902e+01    1.579075e+03
  2.291152e+01    1.578718e+03
  2.296403e+01    1.580565e+03
  2.301653e+01    1.577614e+03
  2.306904e+01    1.577038e+03
  2.312155e+01    1.574028e+03
  2.317405e+01    1.571742e+03
  2.322656e+01    1.565826e+03
  2.327906e+01    1.563989e+03
  2.333157e+01    1.563927e+03
  2.338408e+01    1.563604e+03
  2.343658e+01    1.562403e+03
  2.348909e+01    1.559089e+03
  2.354159e+01    1.555899e+03
  2.359410e+01    1.548573e+03
  2.364661e+01    1.548310e+03
  2.369911e+01    1.542321e+03
  2.375162e+01    1.538179e+03
  2.380412e+01    1.529218e+03
  2.385663e+01    1.521921e+03
  2.390914e+01    1.518393e+03
  2.396164e+01    1.511805e+03
  2.401415e+01    1.508421e+03
  2.406665e+01    1.505085e+03
  2.411916e+01    1.498627e+03
  2.417167e+01    1.493171e+03
  2.422417e+01    1.486315e+03
  2.427668e+01    1.478710e+03
  2.432918e+01    1.472333e+03
  2.438169e+01    1.468829e+03
  2.443420e+01    1.462771e+03
  2.448670e+01    1.455297e+03
  2.453921e+01    1.451462e+03
  2.459171e+01    1.446811e+03
  2.464422e+01    1.445063e+03
  2.469673e+01    1.436707e+03
  2.474923e+01    1.426490e+03
  2.480174e+01    1.418098e+03
  2.485425e+01    1.410824e+03
  2.490675e+01    1.401600e+03
  2.495926e+01    1.392861e+03
  2.501176e+01    1.386305e+03
  2.506427e+01    1.377600e+03
  2.511678e+01    1.369970e+03
  2.516928e+01    1.363909e+03
  2.522179e+01    1.358535e+03
  2.527429e+01    1.349900e+03
  2.532680e+01    1.340421e+03
  2.537931e+01    1.333977e+03
  2.543181e+01    1.325421e+03
  2.548432e+01    1.308915e+03
  2.553682e+01    1.298426e+03
  2.558933e+01    1.297522e+03
  2.564184e+01    1.287987e+03
  2.569434e+01    1.273231e+03
  2.574685e+01    1.262574e+03
  2.579935e+01    1.246795e+03
  2.585186e+01    1.239705e+03
  2.590437e+01    1.235521e+03
  2.595687e+01    1.223621e+03
  2.600938e+01    1.221069e+03
  2.606188e+01    1.220382e+03
  2.611439e+01    1.215193e+03
  2.616690e+01    1.209829e+03
  2.621940e+01    1.202627e+03
  2.627191e+01    1.183841e+03
  2.632441e+01    1.194394e+03
  2.637692e+01    1.187734e+03
  2.642943e+01    1.166000e+03
  2.648193e+01    1.149907e+03
