# == pyFAI calibration ==
# Distance Sample to Detector: 0.2945755399789714 m
# PONI: 2.880e-01, 2.450e-01 m
# Rotations: -0.007291 -0.010887 -0.000000 rad
# 
# == Fit2d calibration ==
# Distance Sample-beamCenter: 294.601 mm
# Center: x=1437.174, y=1655.617 pix
# Tilt: 0.751 deg  TiltPlanRot: -56.193 deg
# 
# Detector Pilatus CdTe 2M	 PixelSize= 1.720e-04, 1.720e-04 m
#    Detector has a mask: True 
#    Detector has a dark current: False 
#    detector has a flat field: False 
# 
# Wavelength: 2.0732883349524408e-11 m
# Mask applied: from detector
# Dark current applied: False
# Flat field applied: False
# Polarization factor: 0.9000000000000002
# Normalization factor: 1.0
# --> /gpfs/current/raw/FMue_2_third_run/FMue_2_third_20231024_085044_00013.dat
#        q_A^-1             I 
  2.814346e-01    8.140669e+04
  3.339406e-01    4.634542e+04
  3.864466e-01    3.449724e+04
  4.389526e-01    2.853756e+04
  4.914586e-01    2.462235e+04
  5.439646e-01    2.232673e+04
  5.964706e-01    2.072516e+04
  6.489766e-01    1.930743e+04
  7.014826e-01    1.824894e+04
  7.539886e-01    1.728907e+04
  8.064947e-01    1.651228e+04
  8.590007e-01    1.583700e+04
  9.115067e-01    1.534749e+04
  9.640127e-01    1.492191e+04
  1.016519e+00    1.463527e+04
  1.069025e+00    1.454138e+04
  1.121531e+00    1.462677e+04
  1.174037e+00    1.488167e+04
  1.226543e+00    1.535795e+04
  1.279049e+00    1.624484e+04
  1.331555e+00    1.740938e+04
  1.384061e+00    1.787351e+04
  1.436567e+00    1.783004e+04
  1.489073e+00    1.764774e+04
  1.541579e+00    1.720001e+04
  1.594085e+00    1.646775e+04
  1.646591e+00    1.565631e+04
  1.699097e+00    1.464504e+04
  1.751603e+00    1.370734e+04
  1.804109e+00    1.285393e+04
  1.856615e+00    1.214140e+04
  1.909121e+00    1.160938e+04
  1.961627e+00    1.119813e+04
  2.014133e+00    1.093563e+04
  2.066639e+00    1.095233e+04
  2.119145e+00    1.170722e+04
  2.171651e+00    1.317870e+04
  2.224157e+00    1.303302e+04
  2.276663e+00    1.143147e+04
  2.329169e+00    1.052676e+04
  2.381675e+00    1.032317e+04
  2.434181e+00    1.082624e+04
  2.486687e+00    1.311276e+04
  2.539193e+00    1.863366e+04
  2.591699e+00    2.032947e+04
  2.644205e+00    1.498636e+04
  2.696711e+00    1.133772e+04
  2.749217e+00    9.732854e+03
  2.801723e+00    8.474399e+03
  2.854229e+00    7.648926e+03
  2.906735e+00    7.311453e+03
  2.959241e+00    7.249520e+03
  3.011747e+00    7.690246e+03
  3.064253e+00    9.334759e+03
  3.116759e+00    1.156308e+04
  3.169265e+00    1.170983e+04
  3.221771e+00    9.923519e+03
  3.274277e+00    7.648931e+03
  3.326783e+00    6.667610e+03
  3.379289e+00    6.440878e+03
  3.431795e+00    6.333771e+03
  3.484301e+00    6.288513e+03
  3.536807e+00    6.252939e+03
  3.589313e+00    6.237610e+03
  3.641819e+00    6.325487e+03
  3.694325e+00    6.515619e+03
  3.746831e+00    6.993029e+03
  3.799337e+00    7.494697e+03
  3.851843e+00    7.404527e+03
  3.904349e+00    7.441692e+03
  3.956855e+00    8.479120e+03
  4.009361e+00    1.031684e+04
  4.061867e+00    1.056714e+04
  4.114373e+00    9.116313e+03
  4.166879e+00    8.058122e+03
  4.219385e+00    7.640811e+03
  4.271891e+00    7.816472e+03
  4.324397e+00    9.437402e+03
  4.376903e+00    1.317923e+04
  4.429409e+00    1.500710e+04
  4.481915e+00    1.414294e+04
  4.534421e+00    1.127355e+04
  4.586927e+00    8.244281e+03
  4.639433e+00    6.865847e+03
  4.691939e+00    6.405212e+03
  4.744445e+00    6.214429e+03
  4.796951e+00    6.168145e+03
  4.849457e+00    6.278131e+03
  4.901963e+00    6.432192e+03
  4.954469e+00    6.489011e+03
  5.006975e+00    6.684688e+03
  5.059481e+00    7.210818e+03
  5.111987e+00    7.486369e+03
  5.164493e+00    6.973598e+03
  5.216999e+00    6.237000e+03
  5.269505e+00    5.753262e+03
  5.322011e+00    5.566070e+03
  5.374517e+00    5.567503e+03
  5.427023e+00    5.458491e+03
  5.479529e+00    5.381554e+03
  5.532035e+00    5.151328e+03
  5.584541e+00    4.776089e+03
  5.637047e+00    4.587521e+03
  5.689553e+00    4.561040e+03
  5.742059e+00    4.710311e+03
  5.794565e+00    4.949549e+03
  5.847071e+00    5.108514e+03
  5.899577e+00    5.419422e+03
  5.952083e+00    5.902505e+03
  6.004589e+00    5.726356e+03
  6.057095e+00    5.165086e+03
  6.109601e+00    4.910870e+03
  6.162107e+00    4.932715e+03
  6.214613e+00    5.037345e+03
  6.267119e+00    4.950087e+03
  6.319625e+00    4.786519e+03
  6.372131e+00    4.636137e+03
  6.424637e+00    4.460626e+03
  6.477143e+00    4.319939e+03
  6.529649e+00    4.327065e+03
  6.582155e+00    4.435369e+03
  6.634661e+00    4.583588e+03
  6.687167e+00    4.837535e+03
  6.739673e+00    5.006676e+03
  6.792179e+00    4.708301e+03
  6.844685e+00    4.331961e+03
  6.897191e+00    4.168006e+03
  6.949697e+00    4.212171e+03
  7.002203e+00    4.156054e+03
  7.054709e+00    4.122859e+03
  7.107215e+00    4.066041e+03
  7.159721e+00    3.965594e+03
  7.212227e+00    3.879240e+03
  7.264733e+00    3.881191e+03
  7.317239e+00    3.997591e+03
  7.369745e+00    4.181143e+03
  7.422251e+00    4.271317e+03
  7.474757e+00    4.214936e+03
  7.527263e+00    4.301481e+03
  7.579769e+00    4.623369e+03
  7.632275e+00    4.718782e+03
  7.684781e+00    4.518461e+03
  7.737287e+00    4.499805e+03
  7.789793e+00    4.452260e+03
  7.842299e+00    4.235094e+03
  7.894805e+00    4.129292e+03
  7.947311e+00    4.104953e+03
  7.999817e+00    4.206671e+03
  8.052323e+00    4.198322e+03
  8.104829e+00    4.002500e+03
  8.157335e+00    3.799489e+03
  8.209841e+00    3.688735e+03
  8.262347e+00    3.628015e+03
  8.314853e+00    3.577156e+03
  8.367359e+00    3.536596e+03
  8.419865e+00    3.513281e+03
  8.472371e+00    3.522684e+03
  8.524877e+00    3.531625e+03
  8.577383e+00    3.560117e+03
  8.629889e+00    3.550143e+03
  8.682395e+00    3.508427e+03
  8.734901e+00    3.531146e+03
  8.787407e+00    3.559850e+03
  8.839913e+00    3.514737e+03
  8.892419e+00    3.459704e+03
  8.944925e+00    3.455985e+03
  8.997431e+00    3.459536e+03
  9.049937e+00    3.446063e+03
  9.102443e+00    3.468084e+03
  9.154949e+00    3.496094e+03
  9.207455e+00    3.422963e+03
  9.259961e+00    3.319044e+03
  9.312467e+00    3.255362e+03
  9.364973e+00    3.199735e+03
  9.417480e+00    3.158773e+03
  9.469986e+00    3.176060e+03
  9.522492e+00    3.217217e+03
  9.574998e+00    3.253838e+03
  9.627504e+00    3.294505e+03
  9.680010e+00    3.300812e+03
  9.732516e+00    3.268413e+03
  9.785022e+00    3.256954e+03
  9.837528e+00    3.242173e+03
  9.890034e+00    3.188366e+03
  9.942540e+00    3.142834e+03
  9.995046e+00    3.144642e+03
  1.004755e+01    3.162001e+03
  1.010006e+01    3.165135e+03
  1.015256e+01    3.159862e+03
  1.020507e+01    3.085869e+03
  1.025758e+01    2.993041e+03
  1.031008e+01    2.949119e+03
  1.036259e+01    2.950258e+03
  1.041509e+01    2.934656e+03
  1.046760e+01    2.932613e+03
  1.052011e+01    2.945297e+03
  1.057261e+01    2.954625e+03
  1.062512e+01    2.947529e+03
  1.067762e+01    2.916515e+03
  1.073013e+01    2.891256e+03
  1.078264e+01    2.881505e+03
  1.083514e+01    2.855696e+03
  1.088765e+01    2.857385e+03
  1.094015e+01    2.887469e+03
  1.099266e+01    2.929766e+03
  1.104517e+01    2.947069e+03
  1.109767e+01    2.919260e+03
  1.115018e+01    2.858341e+03
  1.120268e+01    2.822174e+03
  1.125519e+01    2.793352e+03
  1.130770e+01    2.785762e+03
  1.136020e+01    2.793219e+03
  1.141271e+01    2.825139e+03
  1.146521e+01    2.849042e+03
  1.151772e+01    2.871042e+03
  1.157023e+01    2.885655e+03
  1.162273e+01    2.888710e+03
  1.167524e+01    2.842599e+03
  1.172774e+01    2.824235e+03
  1.178025e+01    2.797253e+03
  1.183276e+01    2.805878e+03
  1.188526e+01    2.798491e+03
  1.193777e+01    2.769488e+03
  1.199027e+01    2.720636e+03
  1.204278e+01    2.679543e+03
  1.209529e+01    2.669318e+03
  1.214779e+01    2.674948e+03
  1.220030e+01    2.698380e+03
  1.225280e+01    2.719400e+03
  1.230531e+01    2.721173e+03
  1.235782e+01    2.692192e+03
  1.241032e+01    2.662167e+03
  1.246283e+01    2.645937e+03
  1.251533e+01    2.633739e+03
  1.256784e+01    2.640800e+03
  1.262035e+01    2.640275e+03
  1.267285e+01    2.633059e+03
  1.272536e+01    2.616254e+03
  1.277786e+01    2.598906e+03
  1.283037e+01    2.582754e+03
  1.288288e+01    2.573688e+03
  1.293538e+01    2.563880e+03
  1.298789e+01    2.563243e+03
  1.304039e+01    2.566974e+03
  1.309290e+01    2.571794e+03
  1.314541e+01    2.572540e+03
  1.319791e+01    2.559347e+03
  1.325042e+01    2.540635e+03
  1.330292e+01    2.541784e+03
  1.335543e+01    2.561487e+03
  1.340794e+01    2.571733e+03
  1.346044e+01    2.585984e+03
  1.351295e+01    2.543298e+03
  1.356545e+01    2.511154e+03
  1.361796e+01    2.495240e+03
  1.367047e+01    2.492933e+03
  1.372297e+01    2.495088e+03
  1.377548e+01    2.489957e+03
  1.382798e+01    2.473627e+03
  1.388049e+01    2.458413e+03
  1.393300e+01    2.439614e+03
  1.398550e+01    2.434024e+03
  1.403801e+01    2.432023e+03
  1.409051e+01    2.428080e+03
  1.414302e+01    2.421219e+03
  1.419553e+01    2.410115e+03
  1.424803e+01    2.393793e+03
  1.430054e+01    2.379771e+03
  1.435304e+01    2.376167e+03
  1.440555e+01    2.375309e+03
  1.445806e+01    2.372945e+03
  1.451056e+01    2.364082e+03
  1.456307e+01    2.354438e+03
  1.461557e+01    2.346656e+03
  1.466808e+01    2.341295e+03
  1.472059e+01    2.338719e+03
  1.477309e+01    2.342685e+03
  1.482560e+01    2.335227e+03
  1.487810e+01    2.318636e+03
  1.493061e+01    2.306809e+03
  1.498312e+01    2.301752e+03
  1.503562e+01    2.300369e+03
  1.508813e+01    2.301021e+03
  1.514063e+01    2.305145e+03
  1.519314e+01    2.318658e+03
  1.524565e+01    2.345843e+03
  1.529815e+01    2.328605e+03
  1.535066e+01    2.320473e+03
  1.540316e+01    2.320534e+03
  1.545567e+01    2.307335e+03
  1.550818e+01    2.306525e+03
  1.556068e+01    2.294247e+03
  1.561319e+01    2.288802e+03
  1.566569e+01    2.285082e+03
  1.571820e+01    2.288623e+03
  1.577071e+01    2.289808e+03
  1.582321e+01    2.283869e+03
  1.587572e+01    2.276383e+03
  1.592822e+01    2.267221e+03
  1.598073e+01    2.259219e+03
  1.603324e+01    2.239075e+03
  1.608574e+01    2.225199e+03
  1.613825e+01    2.212490e+03
  1.619075e+01    2.211267e+03
  1.624326e+01    2.225994e+03
  1.629577e+01    2.221802e+03
  1.634827e+01    2.216184e+03
  1.640078e+01    2.211405e+03
  1.645328e+01    2.208323e+03
  1.650579e+01    2.210647e+03
  1.655830e+01    2.211914e+03
  1.661080e+01    2.209653e+03
  1.666331e+01    2.207330e+03
  1.671581e+01    2.199152e+03
  1.676832e+01    2.195645e+03
  1.682083e+01    2.189551e+03
  1.687333e+01    2.189606e+03
  1.692584e+01    2.190073e+03
  1.697834e+01    2.187033e+03
  1.703085e+01    2.182415e+03
  1.708336e+01    2.183195e+03
  1.713586e+01    2.178335e+03
  1.718837e+01    2.173940e+03
  1.724087e+01    2.165952e+03
  1.729338e+01    2.157523e+03
  1.734589e+01    2.150682e+03
  1.739839e+01    2.144595e+03
  1.745090e+01    2.144050e+03
  1.750340e+01    2.142067e+03
  1.755591e+01    2.136131e+03
  1.760842e+01    2.134177e+03
  1.766092e+01    2.131298e+03
  1.771343e+01    2.132042e+03
  1.776593e+01    2.123577e+03
  1.781844e+01    2.118021e+03
  1.787095e+01    2.114050e+03
  1.792345e+01    2.111327e+03
  1.797596e+01    2.106639e+03
  1.802846e+01    2.102125e+03
  1.808097e+01    2.094492e+03
  1.813348e+01    2.088528e+03
  1.818598e+01    2.079999e+03
  1.823849e+01    2.084682e+03
  1.829099e+01    2.072523e+03
  1.834350e+01    2.065417e+03
  1.839601e+01    2.060417e+03
  1.844851e+01    2.058468e+03
  1.850102e+01    2.053414e+03
  1.855352e+01    2.046320e+03
  1.860603e+01    2.043657e+03
  1.865854e+01    2.054465e+03
  1.871104e+01    2.061538e+03
  1.876355e+01    2.053300e+03
  1.881605e+01    2.046585e+03
  1.886856e+01    2.045014e+03
  1.892107e+01    2.041385e+03
  1.897357e+01    2.034362e+03
  1.902608e+01    2.028677e+03
  1.907858e+01    2.025279e+03
  1.913109e+01    2.018844e+03
  1.918360e+01    2.015579e+03
  1.923610e+01    2.010416e+03
  1.928861e+01    2.002429e+03
  1.934111e+01    1.999615e+03
  1.939362e+01    1.989587e+03
  1.944613e+01    1.988055e+03
  1.949863e+01    1.980519e+03
  1.955114e+01    1.973193e+03
  1.960364e+01    1.970089e+03
  1.965615e+01    1.962371e+03
  1.970866e+01    1.961192e+03
  1.976116e+01    1.955233e+03
  1.981367e+01    1.952759e+03
  1.986617e+01    1.944130e+03
  1.991868e+01    1.937898e+03
  1.997119e+01    1.933715e+03
  2.002369e+01    1.930196e+03
  2.007620e+01    1.920733e+03
  2.012870e+01    1.916908e+03
  2.018121e+01    1.911098e+03
  2.023372e+01    1.905214e+03
  2.028622e+01    1.896877e+03
  2.033873e+01    1.888453e+03
  2.039123e+01    1.884370e+03
  2.044374e+01    1.879460e+03
  2.049625e+01    1.873162e+03
  2.054875e+01    1.867217e+03
  2.060126e+01    1.862135e+03
  2.065376e+01    1.857645e+03
  2.070627e+01    1.852225e+03
  2.075878e+01    1.845891e+03
  2.081128e+01    1.855915e+03
  2.086379e+01    1.850829e+03
  2.091629e+01    1.834629e+03
  2.096880e+01    1.823365e+03
  2.102131e+01    1.813238e+03
  2.107381e+01    1.805986e+03
  2.112632e+01    1.793056e+03
  2.117882e+01    1.785329e+03
  2.123133e+01    1.775147e+03
  2.128384e+01    1.765220e+03
  2.133634e+01    1.756433e+03
  2.138885e+01    1.744061e+03
  2.144135e+01    1.737439e+03
  2.149386e+01    1.728270e+03
  2.154637e+01    1.722924e+03
  2.159887e+01    1.715499e+03
  2.165138e+01    1.704844e+03
  2.170388e+01    1.698365e+03
  2.175639e+01    1.693587e+03
  2.180890e+01    1.687164e+03
  2.186140e+01    1.674428e+03
  2.191391e+01    1.668851e+03
  2.196641e+01    1.662368e+03
  2.201892e+01    1.651247e+03
  2.207143e+01    1.642933e+03
  2.212393e+01    1.632293e+03
  2.217644e+01    1.624984e+03
  2.222894e+01    1.616056e+03
  2.228145e+01    1.607605e+03
  2.233396e+01    1.601044e+03
  2.238646e+01    1.589433e+03
  2.243897e+01    1.583924e+03
  2.249147e+01    1.575653e+03
  2.254398e+01    1.570226e+03
  2.259649e+01    1.573569e+03
  2.264899e+01    1.570967e+03
  2.270150e+01    1.569507e+03
  2.275400e+01    1.571431e+03
  2.280651e+01    1.570451e+03
  2.285902e+01    1.571428e+03
  2.291152e+01    1.590144e+03
  2.296403e+01    1.608554e+03
  2.301653e+01    1.569939e+03
  2.306904e+01    1.569911e+03
  2.312155e+01    1.563539e+03
  2.317405e+01    1.561594e+03
  2.322656e+01    1.559702e+03
  2.327906e+01    1.556453e+03
  2.333157e+01    1.552650e+03
  2.338408e+01    1.556207e+03
  2.343658e+01    1.553799e+03
  2.348909e+01    1.550232e+03
  2.354159e+01    1.546715e+03
  2.359410e+01    1.543027e+03
  2.364661e+01    1.538953e+03
  2.369911e+01    1.537454e+03
  2.375162e+01    1.530080e+03
  2.380412e+01    1.520648e+03
  2.385663e+01    1.514697e+03
  2.390914e+01    1.510299e+03
  2.396164e+01    1.505701e+03
  2.401415e+01    1.499078e+03
  2.406665e+01    1.494289e+03
  2.411916e+01    1.488813e+03
  2.417167e+01    1.484110e+03
  2.422417e+01    1.473757e+03
  2.427668e+01    1.468831e+03
  2.432918e+01    1.465081e+03
  2.438169e+01    1.459195e+03
  2.443420e+01    1.452855e+03
  2.448670e+01    1.448141e+03
  2.453921e+01    1.442183e+03
  2.459171e+01    1.437552e+03
  2.464422e+01    1.438388e+03
  2.469673e+01    1.427516e+03
  2.474923e+01    1.419129e+03
  2.480174e+01    1.407886e+03
  2.485425e+01    1.403978e+03
  2.490675e+01    1.397326e+03
  2.495926e+01    1.384901e+03
  2.501176e+01    1.376850e+03
  2.506427e+01    1.368656e+03
  2.511678e+01    1.360369e+03
  2.516928e+01    1.357869e+03
  2.522179e+01    1.350449e+03
  2.527429e+01    1.340506e+03
  2.532680e+01    1.331586e+03
  2.537931e+01    1.324807e+03
  2.543181e+01    1.317773e+03
  2.548432e+01    1.304666e+03
  2.553682e+01    1.290720e+03
  2.558933e+01    1.288945e+03
  2.564184e+01    1.278974e+03
  2.569434e+01    1.265188e+03
  2.574685e+01    1.251514e+03
  2.579935e+01    1.238726e+03
  2.585186e+01    1.230384e+03
  2.590437e+01    1.224676e+03
  2.595687e+01    1.217873e+03
  2.600938e+01    1.217051e+03
  2.606188e+01    1.207894e+03
  2.611439e+01    1.204355e+03
  2.616690e+01    1.198808e+03
  2.621940e+01    1.195758e+03
  2.627191e+01    1.186565e+03
  2.632441e+01    1.179065e+03
  2.637692e+01    1.173549e+03
  2.642943e+01    1.160692e+03
  2.648193e+01    1.145163e+03
