# == pyFAI calibration ==
# Distance Sample to Detector: 0.2945755399789714 m
# PONI: 2.880e-01, 2.450e-01 m
# Rotations: -0.007291 -0.010887 -0.000000 rad
# 
# == Fit2d calibration ==
# Distance Sample-beamCenter: 294.601 mm
# Center: x=1437.174, y=1655.617 pix
# Tilt: 0.751 deg  TiltPlanRot: -56.193 deg
# 
# Detector Pilatus CdTe 2M	 PixelSize= 1.720e-04, 1.720e-04 m
#    Detector has a mask: True 
#    Detector has a dark current: False 
#    detector has a flat field: False 
# 
# Wavelength: 2.0732883349524408e-11 m
# Mask applied: from detector
# Dark current applied: False
# Flat field applied: False
# Polarization factor: 0.9000000000000002
# Normalization factor: 1.0
# --> /gpfs/current/raw/FMue_2_third_run/FMue_2_third_20231024_085044_00081.dat
#        q_A^-1             I 
  2.814346e-01    8.017366e+04
  3.339406e-01    4.577061e+04
  3.864466e-01    3.420805e+04
  4.389526e-01    2.833645e+04
  4.914586e-01    2.444434e+04
  5.439646e-01    2.212792e+04
  5.964706e-01    2.050396e+04
  6.489766e-01    1.908010e+04
  7.014826e-01    1.800191e+04
  7.539886e-01    1.703316e+04
  8.064947e-01    1.625858e+04
  8.590007e-01    1.559599e+04
  9.115067e-01    1.509237e+04
  9.640127e-01    1.468799e+04
  1.016519e+00    1.439866e+04
  1.069025e+00    1.430717e+04
  1.121531e+00    1.441461e+04
  1.174037e+00    1.467114e+04
  1.226543e+00    1.513687e+04
  1.279049e+00    1.603232e+04
  1.331555e+00    1.713508e+04
  1.384061e+00    1.755918e+04
  1.436567e+00    1.753541e+04
  1.489073e+00    1.738446e+04
  1.541579e+00    1.693353e+04
  1.594085e+00    1.622337e+04
  1.646591e+00    1.540677e+04
  1.699097e+00    1.440975e+04
  1.751603e+00    1.347871e+04
  1.804109e+00    1.263158e+04
  1.856615e+00    1.194467e+04
  1.909121e+00    1.142530e+04
  1.961627e+00    1.103153e+04
  2.014133e+00    1.077951e+04
  2.066639e+00    1.084187e+04
  2.119145e+00    1.169346e+04
  2.171651e+00    1.306680e+04
  2.224157e+00    1.261402e+04
  2.276663e+00    1.106577e+04
  2.329169e+00    1.030672e+04
  2.381675e+00    1.019047e+04
  2.434181e+00    1.082371e+04
  2.486687e+00    1.345820e+04
  2.539193e+00    1.900609e+04
  2.591699e+00    1.927928e+04
  2.644205e+00    1.393134e+04
  2.696711e+00    1.086788e+04
  2.749217e+00    9.382104e+03
  2.801723e+00    8.229991e+03
  2.854229e+00    7.537172e+03
  2.906735e+00    7.266861e+03
  2.959241e+00    7.252511e+03
  3.011747e+00    7.827944e+03
  3.064253e+00    9.603161e+03
  3.116759e+00    1.139019e+04
  3.169265e+00    1.112646e+04
  3.221771e+00    9.265781e+03
  3.274277e+00    7.323487e+03
  3.326783e+00    6.602193e+03
  3.379289e+00    6.425969e+03
  3.431795e+00    6.340118e+03
  3.484301e+00    6.300682e+03
  3.536807e+00    6.272864e+03
  3.589313e+00    6.261280e+03
  3.641819e+00    6.367213e+03
  3.694325e+00    6.585860e+03
  3.746831e+00    7.093056e+03
  3.799337e+00    7.487054e+03
  3.851843e+00    7.324784e+03
  3.904349e+00    7.504713e+03
  3.956855e+00    8.722902e+03
  4.009361e+00    1.032062e+04
  4.061867e+00    1.000637e+04
  4.114373e+00    8.628437e+03
  4.166879e+00    7.846306e+03
  4.219385e+00    7.585693e+03
  4.271891e+00    7.979172e+03
  4.324397e+00    1.001326e+04
  4.376903e+00    1.340878e+04
  4.429409e+00    1.418167e+04
  4.481915e+00    1.292750e+04
  4.534421e+00    1.007022e+04
  4.586927e+00    7.738809e+03
  4.639433e+00    6.766353e+03
  4.691939e+00    6.428697e+03
  4.744445e+00    6.281972e+03
  4.796951e+00    6.260611e+03
  4.849457e+00    6.380088e+03
  4.901963e+00    6.478378e+03
  4.954469e+00    6.520159e+03
  5.006975e+00    6.773962e+03
  5.059481e+00    7.261950e+03
  5.111987e+00    7.296607e+03
  5.164493e+00    6.690712e+03
  5.216999e+00    6.052443e+03
  5.269505e+00    5.690088e+03
  5.322011e+00    5.583536e+03
  5.374517e+00    5.556771e+03
  5.427023e+00    5.410282e+03
  5.479529e+00    5.318891e+03
  5.532035e+00    5.033986e+03
  5.584541e+00    4.732064e+03
  5.637047e+00    4.603340e+03
  5.689553e+00    4.610406e+03
  5.742059e+00    4.771836e+03
  5.794565e+00    4.941573e+03
  5.847071e+00    5.085336e+03
  5.899577e+00    5.442198e+03
  5.952083e+00    5.721555e+03
  6.004589e+00    5.373705e+03
  6.057095e+00    4.956437e+03
  6.109601e+00    4.836276e+03
  6.162107e+00    4.901291e+03
  6.214613e+00    4.926148e+03
  6.267119e+00    4.809774e+03
  6.319625e+00    4.667493e+03
  6.372131e+00    4.533490e+03
  6.424637e+00    4.393096e+03
  6.477143e+00    4.305835e+03
  6.529649e+00    4.341032e+03
  6.582155e+00    4.437531e+03
  6.634661e+00    4.597810e+03
  6.687167e+00    4.813385e+03
  6.739673e+00    4.804989e+03
  6.792179e+00    4.482960e+03
  6.844685e+00    4.226646e+03
  6.897191e+00    4.150206e+03
  6.949697e+00    4.185896e+03
  7.002203e+00    4.118329e+03
  7.054709e+00    4.091565e+03
  7.107215e+00    4.017635e+03
  7.159721e+00    3.936320e+03
  7.212227e+00    3.894309e+03
  7.264733e+00    3.925067e+03
  7.317239e+00    4.048833e+03
  7.369745e+00    4.176498e+03
  7.422251e+00    4.180167e+03
  7.474757e+00    4.154468e+03
  7.527263e+00    4.320042e+03
  7.579769e+00    4.542945e+03
  7.632275e+00    4.461363e+03
  7.684781e+00    4.341604e+03
  7.737287e+00    4.341100e+03
  7.789793e+00    4.230430e+03
  7.842299e+00    4.068053e+03
  7.894805e+00    4.052672e+03
  7.947311e+00    4.052377e+03
  7.999817e+00    4.113873e+03
  8.052323e+00    4.023289e+03
  8.104829e+00    3.848396e+03
  8.157335e+00    3.721538e+03
  8.209841e+00    3.654784e+03
  8.262347e+00    3.615930e+03
  8.314853e+00    3.571019e+03
  8.367359e+00    3.533216e+03
  8.419865e+00    3.518221e+03
  8.472371e+00    3.525246e+03
  8.524877e+00    3.527656e+03
  8.577383e+00    3.537521e+03
  8.629889e+00    3.510307e+03
  8.682395e+00    3.491490e+03
  8.734901e+00    3.517136e+03
  8.787407e+00    3.505260e+03
  8.839913e+00    3.452125e+03
  8.892419e+00    3.423476e+03
  8.944925e+00    3.418753e+03
  8.997431e+00    3.411373e+03
  9.049937e+00    3.401532e+03
  9.102443e+00    3.424933e+03
  9.154949e+00    3.408342e+03
  9.207455e+00    3.328406e+03
  9.259961e+00    3.259225e+03
  9.312467e+00    3.215648e+03
  9.364973e+00    3.174919e+03
  9.417480e+00    3.147719e+03
  9.469986e+00    3.168231e+03
  9.522492e+00    3.188501e+03
  9.574998e+00    3.210329e+03
  9.627504e+00    3.225089e+03
  9.680010e+00    3.208759e+03
  9.732516e+00    3.190880e+03
  9.785022e+00    3.177577e+03
  9.837528e+00    3.145950e+03
  9.890034e+00    3.105336e+03
  9.942540e+00    3.083985e+03
  9.995046e+00    3.084085e+03
  1.004755e+01    3.097911e+03
  1.010006e+01    3.085613e+03
  1.015256e+01    3.047138e+03
  1.020507e+01    2.979696e+03
  1.025758e+01    2.923890e+03
  1.031008e+01    2.904392e+03
  1.036259e+01    2.918728e+03
  1.041509e+01    2.909020e+03
  1.046760e+01    2.905577e+03
  1.052011e+01    2.912951e+03
  1.057261e+01    2.910368e+03
  1.062512e+01    2.893952e+03
  1.067762e+01    2.875063e+03
  1.073013e+01    2.859672e+03
  1.078264e+01    2.846657e+03
  1.083514e+01    2.833149e+03
  1.088765e+01    2.843549e+03
  1.094015e+01    2.863045e+03
  1.099266e+01    2.880248e+03
  1.104517e+01    2.867652e+03
  1.109767e+01    2.838673e+03
  1.115018e+01    2.799760e+03
  1.120268e+01    2.781296e+03
  1.125519e+01    2.765288e+03
  1.130770e+01    2.764386e+03
  1.136020e+01    2.768931e+03
  1.141271e+01    2.788699e+03
  1.146521e+01    2.797730e+03
  1.151772e+01    2.808684e+03
  1.157023e+01    2.809598e+03
  1.162273e+01    2.794601e+03
  1.167524e+01    2.756367e+03
  1.172774e+01    2.767324e+03
  1.178025e+01    2.750988e+03
  1.183276e+01    2.747502e+03
  1.188526e+01    2.728088e+03
  1.193777e+01    2.703971e+03
  1.199027e+01    2.671274e+03
  1.204278e+01    2.654952e+03
  1.209529e+01    2.650917e+03
  1.214779e+01    2.657927e+03
  1.220030e+01    2.666970e+03
  1.225280e+01    2.669614e+03
  1.230531e+01    2.655525e+03
  1.235782e+01    2.636813e+03
  1.241032e+01    2.620194e+03
  1.246283e+01    2.613508e+03
  1.251533e+01    2.602549e+03
  1.256784e+01    2.608341e+03
  1.262035e+01    2.603499e+03
  1.267285e+01    2.591003e+03
  1.272536e+01    2.578301e+03
  1.277786e+01    2.568020e+03
  1.283037e+01    2.553133e+03
  1.288288e+01    2.548105e+03
  1.293538e+01    2.536748e+03
  1.298789e+01    2.533330e+03
  1.304039e+01    2.531052e+03
  1.309290e+01    2.532603e+03
  1.314541e+01    2.525820e+03
  1.319791e+01    2.511404e+03
  1.325042e+01    2.494211e+03
  1.330292e+01    2.491583e+03
  1.335543e+01    2.496024e+03
  1.340794e+01    2.491459e+03
  1.346044e+01    2.501832e+03
  1.351295e+01    2.476091e+03
  1.356545e+01    2.459300e+03
  1.361796e+01    2.449940e+03
  1.367047e+01    2.446681e+03
  1.372297e+01    2.444527e+03
  1.377548e+01    2.432031e+03
  1.382798e+01    2.420227e+03
  1.388049e+01    2.407207e+03
  1.393300e+01    2.396464e+03
  1.398550e+01    2.393933e+03
  1.403801e+01    2.391652e+03
  1.409051e+01    2.382629e+03
  1.414302e+01    2.372288e+03
  1.419553e+01    2.363633e+03
  1.424803e+01    2.352477e+03
  1.430054e+01    2.345568e+03
  1.435304e+01    2.340994e+03
  1.440555e+01    2.333230e+03
  1.445806e+01    2.326984e+03
  1.451056e+01    2.319812e+03
  1.456307e+01    2.308773e+03
  1.461557e+01    2.304516e+03
  1.466808e+01    2.300346e+03
  1.472059e+01    2.299286e+03
  1.477309e+01    2.298472e+03
  1.482560e+01    2.291273e+03
  1.487810e+01    2.280211e+03
  1.493061e+01    2.274528e+03
  1.498312e+01    2.268058e+03
  1.503562e+01    2.267716e+03
  1.508813e+01    2.266806e+03
  1.514063e+01    2.267163e+03
  1.519314e+01    2.282446e+03
  1.524565e+01    2.307563e+03
  1.529815e+01    2.284789e+03
  1.535066e+01    2.276815e+03
  1.540316e+01    2.266266e+03
  1.545567e+01    2.255182e+03
  1.550818e+01    2.257927e+03
  1.556068e+01    2.252857e+03
  1.561319e+01    2.246561e+03
  1.566569e+01    2.244334e+03
  1.571820e+01    2.243410e+03
  1.577071e+01    2.239080e+03
  1.582321e+01    2.232240e+03
  1.587572e+01    2.225472e+03
  1.592822e+01    2.221790e+03
  1.598073e+01    2.214942e+03
  1.603324e+01    2.198664e+03
  1.608574e+01    2.182168e+03
  1.613825e+01    2.173843e+03
  1.619075e+01    2.175421e+03
  1.624326e+01    2.191115e+03
  1.629577e+01    2.186669e+03
  1.634827e+01    2.181692e+03
  1.640078e+01    2.177284e+03
  1.645328e+01    2.175060e+03
  1.650579e+01    2.173735e+03
  1.655830e+01    2.171246e+03
  1.661080e+01    2.163805e+03
  1.666331e+01    2.159115e+03
  1.671581e+01    2.154959e+03
  1.676832e+01    2.151650e+03
  1.682083e+01    2.147519e+03
  1.687333e+01    2.143118e+03
  1.692584e+01    2.142343e+03
  1.697834e+01    2.139350e+03
  1.703085e+01    2.132116e+03
  1.708336e+01    2.129715e+03
  1.713586e+01    2.123674e+03
  1.718837e+01    2.118077e+03
  1.724087e+01    2.110049e+03
  1.729338e+01    2.105370e+03
  1.734589e+01    2.103002e+03
  1.739839e+01    2.098073e+03
  1.745090e+01    2.095934e+03
  1.750340e+01    2.093548e+03
  1.755591e+01    2.088856e+03
  1.760842e+01    2.086518e+03
  1.766092e+01    2.077840e+03
  1.771343e+01    2.077551e+03
  1.776593e+01    2.069836e+03
  1.781844e+01    2.062813e+03
  1.787095e+01    2.059285e+03
  1.792345e+01    2.052051e+03
  1.797596e+01    2.047075e+03
  1.802846e+01    2.044305e+03
  1.808097e+01    2.035763e+03
  1.813348e+01    2.030687e+03
  1.818598e+01    2.022783e+03
  1.823849e+01    2.027598e+03
  1.829099e+01    2.016588e+03
  1.834350e+01    2.010960e+03
  1.839601e+01    2.007074e+03
  1.844851e+01    2.000949e+03
  1.850102e+01    1.999578e+03
  1.855352e+01    1.991533e+03
  1.860603e+01    1.988556e+03
  1.865854e+01    1.999288e+03
  1.871104e+01    2.000604e+03
  1.876355e+01    1.989702e+03
  1.881605e+01    1.984708e+03
  1.886856e+01    1.982791e+03
  1.892107e+01    1.978058e+03
  1.897357e+01    1.971798e+03
  1.902608e+01    1.964447e+03
  1.907858e+01    1.957384e+03
  1.913109e+01    1.951569e+03
  1.918360e+01    1.945019e+03
  1.923610e+01    1.938751e+03
  1.928861e+01    1.931996e+03
  1.934111e+01    1.928420e+03
  1.939362e+01    1.918377e+03
  1.944613e+01    1.913782e+03
  1.949863e+01    1.907979e+03
  1.955114e+01    1.900339e+03
  1.960364e+01    1.896675e+03
  1.965615e+01    1.891384e+03
  1.970866e+01    1.886100e+03
  1.976116e+01    1.880522e+03
  1.981367e+01    1.876036e+03
  1.986617e+01    1.868921e+03
  1.991868e+01    1.862700e+03
  1.997119e+01    1.858220e+03
  2.002369e+01    1.854234e+03
  2.007620e+01    1.843854e+03
  2.012870e+01    1.839692e+03
  2.018121e+01    1.833487e+03
  2.023372e+01    1.827062e+03
  2.028622e+01    1.819436e+03
  2.033873e+01    1.810878e+03
  2.039123e+01    1.805394e+03
  2.044374e+01    1.800749e+03
  2.049625e+01    1.795347e+03
  2.054875e+01    1.790548e+03
  2.060126e+01    1.785224e+03
  2.065376e+01    1.780436e+03
  2.070627e+01    1.776952e+03
  2.075878e+01    1.772918e+03
  2.081128e+01    1.779379e+03
  2.086379e+01    1.772301e+03
  2.091629e+01    1.756764e+03
  2.096880e+01    1.744944e+03
  2.102131e+01    1.736460e+03
  2.107381e+01    1.727853e+03
  2.112632e+01    1.715703e+03
  2.117882e+01    1.708766e+03
  2.123133e+01    1.698627e+03
  2.128384e+01    1.689818e+03
  2.133634e+01    1.682031e+03
  2.138885e+01    1.670831e+03
  2.144135e+01    1.662384e+03
  2.149386e+01    1.654760e+03
  2.154637e+01    1.647318e+03
  2.159887e+01    1.640146e+03
  2.165138e+01    1.629813e+03
  2.170388e+01    1.625191e+03
  2.175639e+01    1.620419e+03
  2.180890e+01    1.612417e+03
  2.186140e+01    1.601124e+03
  2.191391e+01    1.595817e+03
  2.196641e+01    1.585812e+03
  2.201892e+01    1.577607e+03
  2.207143e+01    1.568911e+03
  2.212393e+01    1.560669e+03
  2.217644e+01    1.551012e+03
  2.222894e+01    1.544321e+03
  2.228145e+01    1.535509e+03
  2.233396e+01    1.527506e+03
  2.238646e+01    1.518309e+03
  2.243897e+01    1.509587e+03
  2.249147e+01    1.501083e+03
  2.254398e+01    1.496272e+03
  2.259649e+01    1.499849e+03
  2.264899e+01    1.498025e+03
  2.270150e+01    1.496173e+03
  2.275400e+01    1.498000e+03
  2.280651e+01    1.495904e+03
  2.285902e+01    1.494122e+03
  2.291152e+01    1.492860e+03
  2.296403e+01    1.493095e+03
  2.301653e+01    1.492577e+03
  2.306904e+01    1.489745e+03
  2.312155e+01    1.486992e+03
  2.317405e+01    1.483440e+03
  2.322656e+01    1.490477e+03
  2.327906e+01    1.494500e+03
  2.333157e+01    1.471084e+03
  2.338408e+01    1.473806e+03
  2.343658e+01    1.470384e+03
  2.348909e+01    1.467515e+03
  2.354159e+01    1.460845e+03
  2.359410e+01    1.459124e+03
  2.364661e+01    1.456475e+03
  2.369911e+01    1.450036e+03
  2.375162e+01    1.445200e+03
  2.380412e+01    1.435421e+03
  2.385663e+01    1.430469e+03
  2.390914e+01    1.422200e+03
  2.396164e+01    1.417338e+03
  2.401415e+01    1.414783e+03
  2.406665e+01    1.406255e+03
  2.411916e+01    1.400280e+03
  2.417167e+01    1.393349e+03
  2.422417e+01    1.385699e+03
  2.427668e+01    1.379239e+03
  2.432918e+01    1.374544e+03
  2.438169e+01    1.370617e+03
  2.443420e+01    1.366237e+03
  2.448670e+01    1.362578e+03
  2.453921e+01    1.353562e+03
  2.459171e+01    1.353561e+03
  2.464422e+01    1.349622e+03
  2.469673e+01    1.338990e+03
  2.474923e+01    1.334417e+03
  2.480174e+01    1.325333e+03
  2.485425e+01    1.315857e+03
  2.490675e+01    1.306820e+03
  2.495926e+01    1.298785e+03
  2.501176e+01    1.290078e+03
  2.506427e+01    1.282335e+03
  2.511678e+01    1.275359e+03
  2.516928e+01    1.270545e+03
  2.522179e+01    1.265183e+03
  2.527429e+01    1.254216e+03
  2.532680e+01    1.244945e+03
  2.537931e+01    1.239864e+03
  2.543181e+01    1.231436e+03
  2.548432e+01    1.216472e+03
  2.553682e+01    1.203632e+03
  2.558933e+01    1.201193e+03
  2.564184e+01    1.191516e+03
  2.569434e+01    1.179329e+03
  2.574685e+01    1.165554e+03
  2.579935e+01    1.156392e+03
  2.585186e+01    1.148416e+03
  2.590437e+01    1.143078e+03
  2.595687e+01    1.136388e+03
  2.600938e+01    1.132822e+03
  2.606188e+01    1.131458e+03
  2.611439e+01    1.134210e+03
  2.616690e+01    1.129432e+03
  2.621940e+01    1.116476e+03
  2.627191e+01    1.108612e+03
  2.632441e+01    1.113104e+03
  2.637692e+01    1.102813e+03
  2.642943e+01    1.087703e+03
  2.648193e+01    1.074270e+03
