# == pyFAI calibration ==
# Distance Sample to Detector: 0.2945755399789714 m
# PONI: 2.880e-01, 2.450e-01 m
# Rotations: -0.007291 -0.010887 -0.000000 rad
# 
# == Fit2d calibration ==
# Distance Sample-beamCenter: 294.601 mm
# Center: x=1437.174, y=1655.617 pix
# Tilt: 0.751 deg  TiltPlanRot: -56.193 deg
# 
# Detector Pilatus CdTe 2M	 PixelSize= 1.720e-04, 1.720e-04 m
#    Detector has a mask: True 
#    Detector has a dark current: False 
#    detector has a flat field: False 
# 
# Wavelength: 2.0732883349524408e-11 m
# Mask applied: from detector
# Dark current applied: False
# Flat field applied: False
# Polarization factor: 0.9000000000000002
# Normalization factor: 1.0
# --> /gpfs/current/raw/FMue_2_third_run/FMue_2_third_20231024_085044_00062.dat
#        q_A^-1             I 
  2.814346e-01    8.144273e+04
  3.339406e-01    4.636228e+04
  3.864466e-01    3.451233e+04
  4.389526e-01    2.852721e+04
  4.914586e-01    2.458598e+04
  5.439646e-01    2.222188e+04
  5.964706e-01    2.059298e+04
  6.489766e-01    1.915254e+04
  7.014826e-01    1.806750e+04
  7.539886e-01    1.709398e+04
  8.064947e-01    1.631025e+04
  8.590007e-01    1.564656e+04
  9.115067e-01    1.514543e+04
  9.640127e-01    1.472238e+04
  1.016519e+00    1.443868e+04
  1.069025e+00    1.434911e+04
  1.121531e+00    1.444216e+04
  1.174037e+00    1.469894e+04
  1.226543e+00    1.516393e+04
  1.279049e+00    1.605928e+04
  1.331555e+00    1.717228e+04
  1.384061e+00    1.762298e+04
  1.436567e+00    1.757909e+04
  1.489073e+00    1.740746e+04
  1.541579e+00    1.696897e+04
  1.594085e+00    1.623918e+04
  1.646591e+00    1.542618e+04
  1.699097e+00    1.443563e+04
  1.751603e+00    1.349849e+04
  1.804109e+00    1.265883e+04
  1.856615e+00    1.196928e+04
  1.909121e+00    1.144647e+04
  1.961627e+00    1.104839e+04
  2.014133e+00    1.079712e+04
  2.066639e+00    1.084714e+04
  2.119145e+00    1.165155e+04
  2.171651e+00    1.303483e+04
  2.224157e+00    1.268471e+04
  2.276663e+00    1.113692e+04
  2.329169e+00    1.034231e+04
  2.381675e+00    1.021128e+04
  2.434181e+00    1.080142e+04
  2.486687e+00    1.331034e+04
  2.539193e+00    1.879917e+04
  2.591699e+00    1.952642e+04
  2.644205e+00    1.422755e+04
  2.696711e+00    1.099998e+04
  2.749217e+00    9.476476e+03
  2.801723e+00    8.275881e+03
  2.854229e+00    7.551354e+03
  2.906735e+00    7.259771e+03
  2.959241e+00    7.232552e+03
  3.011747e+00    7.764033e+03
  3.064253e+00    9.499468e+03
  3.116759e+00    1.143787e+04
  3.169265e+00    1.128790e+04
  3.221771e+00    9.435215e+03
  3.274277e+00    7.405531e+03
  3.326783e+00    6.605952e+03
  3.379289e+00    6.421538e+03
  3.431795e+00    6.323333e+03
  3.484301e+00    6.283572e+03
  3.536807e+00    6.256761e+03
  3.589313e+00    6.241924e+03
  3.641819e+00    6.350702e+03
  3.694325e+00    6.554313e+03
  3.746831e+00    7.042143e+03
  3.799337e+00    7.460429e+03
  3.851843e+00    7.328427e+03
  3.904349e+00    7.475559e+03
  3.956855e+00    8.624475e+03
  4.009361e+00    1.028509e+04
  4.061867e+00    1.014755e+04
  4.114373e+00    8.747201e+03
  4.166879e+00    7.891711e+03
  4.219385e+00    7.584936e+03
  4.271891e+00    7.913132e+03
  4.324397e+00    9.809513e+03
  4.376903e+00    1.332005e+04
  4.429409e+00    1.441982e+04
  4.481915e+00    1.326615e+04
  4.534421e+00    1.037464e+04
  4.586927e+00    7.858331e+03
  4.639433e+00    6.785570e+03
  4.691939e+00    6.411661e+03
  4.744445e+00    6.253655e+03
  4.796951e+00    6.223712e+03
  4.849457e+00    6.341235e+03
  4.901963e+00    6.450912e+03
  4.954469e+00    6.495286e+03
  5.006975e+00    6.730446e+03
  5.059481e+00    7.228621e+03
  5.111987e+00    7.336482e+03
  5.164493e+00    6.763155e+03
  5.216999e+00    6.089665e+03
  5.269505e+00    5.693328e+03
  5.322011e+00    5.566880e+03
  5.374517e+00    5.552154e+03
  5.427023e+00    5.419388e+03
  5.479529e+00    5.330407e+03
  5.532035e+00    5.050631e+03
  5.584541e+00    4.735912e+03
  5.637047e+00    4.594120e+03
  5.689553e+00    4.585767e+03
  5.742059e+00    4.743613e+03
  5.794565e+00    4.932562e+03
  5.847071e+00    5.075407e+03
  5.899577e+00    5.421853e+03
  5.952083e+00    5.762221e+03
  6.004589e+00    5.459897e+03
  6.057095e+00    4.998950e+03
  6.109601e+00    4.844101e+03
  6.162107e+00    4.897690e+03
  6.214613e+00    4.946658e+03
  6.267119e+00    4.841465e+03
  6.319625e+00    4.690791e+03
  6.372131e+00    4.553037e+03
  6.424637e+00    4.404596e+03
  6.477143e+00    4.298209e+03
  6.529649e+00    4.326771e+03
  6.582155e+00    4.426008e+03
  6.634661e+00    4.587977e+03
  6.687167e+00    4.813495e+03
  6.739673e+00    4.850709e+03
  6.792179e+00    4.534814e+03
  6.844685e+00    4.245682e+03
  6.897191e+00    4.144312e+03
  6.949697e+00    4.188268e+03
  7.002203e+00    4.128018e+03
  7.054709e+00    4.096777e+03
  7.107215e+00    4.025297e+03
  7.159721e+00    3.936839e+03
  7.212227e+00    3.883369e+03
  7.264733e+00    3.906011e+03
  7.317239e+00    4.026469e+03
  7.369745e+00    4.171408e+03
  7.422251e+00    4.198409e+03
  7.474757e+00    4.160830e+03
  7.527263e+00    4.305532e+03
  7.579769e+00    4.559550e+03
  7.632275e+00    4.521856e+03
  7.684781e+00    4.380664e+03
  7.737287e+00    4.378414e+03
  7.789793e+00    4.280662e+03
  7.842299e+00    4.097520e+03
  7.894805e+00    4.059520e+03
  7.947311e+00    4.056711e+03
  7.999817e+00    4.127672e+03
  8.052323e+00    4.062312e+03
  8.104829e+00    3.880116e+03
  8.157335e+00    3.735225e+03
  8.209841e+00    3.658144e+03
  8.262347e+00    3.614436e+03
  8.314853e+00    3.569531e+03
  8.367359e+00    3.532521e+03
  8.419865e+00    3.512481e+03
  8.472371e+00    3.517853e+03
  8.524877e+00    3.519459e+03
  8.577383e+00    3.537445e+03
  8.629889e+00    3.516668e+03
  8.682395e+00    3.489113e+03
  8.734901e+00    3.514198e+03
  8.787407e+00    3.517089e+03
  8.839913e+00    3.461849e+03
  8.892419e+00    3.429667e+03
  8.944925e+00    3.424959e+03
  8.997431e+00    3.418226e+03
  9.049937e+00    3.404868e+03
  9.102443e+00    3.426603e+03
  9.154949e+00    3.426629e+03
  9.207455e+00    3.344803e+03
  9.259961e+00    3.268390e+03
  9.312467e+00    3.220058e+03
  9.364973e+00    3.174407e+03
  9.417480e+00    3.146530e+03
  9.469986e+00    3.166708e+03
  9.522492e+00    3.191915e+03
  9.574998e+00    3.213104e+03
  9.627504e+00    3.238082e+03
  9.680010e+00    3.226935e+03
  9.732516e+00    3.202876e+03
  9.785022e+00    3.192966e+03
  9.837528e+00    3.164723e+03
  9.890034e+00    3.119000e+03
  9.942540e+00    3.093131e+03
  9.995046e+00    3.095987e+03
  1.004755e+01    3.108820e+03
  1.010006e+01    3.096865e+03
  1.015256e+01    3.070477e+03
  1.020507e+01    3.000607e+03
  1.025758e+01    2.935118e+03
  1.031008e+01    2.911960e+03
  1.036259e+01    2.922118e+03
  1.041509e+01    2.911811e+03
  1.046760e+01    2.908472e+03
  1.052011e+01    2.916161e+03
  1.057261e+01    2.917147e+03
  1.062512e+01    2.902070e+03
  1.067762e+01    2.881065e+03
  1.073013e+01    2.862851e+03
  1.078264e+01    2.849622e+03
  1.083514e+01    2.834807e+03
  1.088765e+01    2.841706e+03
  1.094015e+01    2.862948e+03
  1.099266e+01    2.885722e+03
  1.104517e+01    2.880860e+03
  1.109767e+01    2.852837e+03
  1.115018e+01    2.810353e+03
  1.120268e+01    2.786636e+03
  1.125519e+01    2.769376e+03
  1.130770e+01    2.768181e+03
  1.136020e+01    2.771352e+03
  1.141271e+01    2.790481e+03
  1.146521e+01    2.803251e+03
  1.151772e+01    2.816435e+03
  1.157023e+01    2.822337e+03
  1.162273e+01    2.810398e+03
  1.167524e+01    2.769316e+03
  1.172774e+01    2.776080e+03
  1.178025e+01    2.756238e+03
  1.183276e+01    2.756667e+03
  1.188526e+01    2.741281e+03
  1.193777e+01    2.713194e+03
  1.199027e+01    2.676248e+03
  1.204278e+01    2.657280e+03
  1.209529e+01    2.653052e+03
  1.214779e+01    2.658432e+03
  1.220030e+01    2.672844e+03
  1.225280e+01    2.676782e+03
  1.230531e+01    2.666390e+03
  1.235782e+01    2.642762e+03
  1.241032e+01    2.623046e+03
  1.246283e+01    2.617349e+03
  1.251533e+01    2.605711e+03
  1.256784e+01    2.612182e+03
  1.262035e+01    2.605229e+03
  1.267285e+01    2.595965e+03
  1.272536e+01    2.582459e+03
  1.277786e+01    2.570296e+03
  1.283037e+01    2.554615e+03
  1.288288e+01    2.548838e+03
  1.293538e+01    2.539854e+03
  1.298789e+01    2.536968e+03
  1.304039e+01    2.536500e+03
  1.309290e+01    2.536487e+03
  1.314541e+01    2.535291e+03
  1.319791e+01    2.519247e+03
  1.325042e+01    2.499718e+03
  1.330292e+01    2.500995e+03
  1.335543e+01    2.508969e+03
  1.340794e+01    2.508826e+03
  1.346044e+01    2.516753e+03
  1.351295e+01    2.486321e+03
  1.356545e+01    2.470030e+03
  1.361796e+01    2.456161e+03
  1.367047e+01    2.453469e+03
  1.372297e+01    2.450547e+03
  1.377548e+01    2.440438e+03
  1.382798e+01    2.428894e+03
  1.388049e+01    2.414956e+03
  1.393300e+01    2.402929e+03
  1.398550e+01    2.400978e+03
  1.403801e+01    2.396189e+03
  1.409051e+01    2.391081e+03
  1.414302e+01    2.378174e+03
  1.419553e+01    2.372224e+03
  1.424803e+01    2.360459e+03
  1.430054e+01    2.348856e+03
  1.435304e+01    2.346711e+03
  1.440555e+01    2.340400e+03
  1.445806e+01    2.334745e+03
  1.451056e+01    2.326774e+03
  1.456307e+01    2.316283e+03
  1.461557e+01    2.312444e+03
  1.466808e+01    2.306133e+03
  1.472059e+01    2.303982e+03
  1.477309e+01    2.305257e+03
  1.482560e+01    2.296865e+03
  1.487810e+01    2.287363e+03
  1.493061e+01    2.279371e+03
  1.498312e+01    2.274892e+03
  1.503562e+01    2.272228e+03
  1.508813e+01    2.270189e+03
  1.514063e+01    2.272917e+03
  1.519314e+01    2.285315e+03
  1.524565e+01    2.315265e+03
  1.529815e+01    2.293199e+03
  1.535066e+01    2.282488e+03
  1.540316e+01    2.276184e+03
  1.545567e+01    2.262841e+03
  1.550818e+01    2.266079e+03
  1.556068e+01    2.258886e+03
  1.561319e+01    2.255504e+03
  1.566569e+01    2.249920e+03
  1.571820e+01    2.249761e+03
  1.577071e+01    2.245565e+03
  1.582321e+01    2.241455e+03
  1.587572e+01    2.234792e+03
  1.592822e+01    2.228953e+03
  1.598073e+01    2.220989e+03
  1.603324e+01    2.206720e+03
  1.608574e+01    2.190470e+03
  1.613825e+01    2.178511e+03
  1.619075e+01    2.181148e+03
  1.624326e+01    2.197484e+03
  1.629577e+01    2.192075e+03
  1.634827e+01    2.187586e+03
  1.640078e+01    2.183102e+03
  1.645328e+01    2.181190e+03
  1.650579e+01    2.179547e+03
  1.655830e+01    2.178636e+03
  1.661080e+01    2.171769e+03
  1.666331e+01    2.169262e+03
  1.671581e+01    2.163142e+03
  1.676832e+01    2.160943e+03
  1.682083e+01    2.155860e+03
  1.687333e+01    2.153199e+03
  1.692584e+01    2.151933e+03
  1.697834e+01    2.148678e+03
  1.703085e+01    2.141869e+03
  1.708336e+01    2.141176e+03
  1.713586e+01    2.134039e+03
  1.718837e+01    2.128816e+03
  1.724087e+01    2.122629e+03
  1.729338e+01    2.117256e+03
  1.734589e+01    2.112021e+03
  1.739839e+01    2.107472e+03
  1.745090e+01    2.105313e+03
  1.750340e+01    2.102888e+03
  1.755591e+01    2.098086e+03
  1.760842e+01    2.096963e+03
  1.766092e+01    2.091765e+03
  1.771343e+01    2.089647e+03
  1.776593e+01    2.083231e+03
  1.781844e+01    2.075773e+03
  1.787095e+01    2.071049e+03
  1.792345e+01    2.065226e+03
  1.797596e+01    2.060492e+03
  1.802846e+01    2.057025e+03
  1.808097e+01    2.049291e+03
  1.813348e+01    2.043011e+03
  1.818598e+01    2.037400e+03
  1.823849e+01    2.041759e+03
  1.829099e+01    2.031125e+03
  1.834350e+01    2.025741e+03
  1.839601e+01    2.021620e+03
  1.844851e+01    2.014188e+03
  1.850102e+01    2.012158e+03
  1.855352e+01    2.006777e+03
  1.860603e+01    2.001923e+03
  1.865854e+01    2.010843e+03
  1.871104e+01    2.016947e+03
  1.876355e+01    2.006012e+03
  1.881605e+01    2.001249e+03
  1.886856e+01    1.998745e+03
  1.892107e+01    1.994448e+03
  1.897357e+01    1.987698e+03
  1.902608e+01    1.981247e+03
  1.907858e+01    1.975536e+03
  1.913109e+01    1.969265e+03
  1.918360e+01    1.963606e+03
  1.923610e+01    1.957766e+03
  1.928861e+01    1.950255e+03
  1.934111e+01    1.945257e+03
  1.939362e+01    1.936511e+03
  1.944613e+01    1.932143e+03
  1.949863e+01    1.925091e+03
  1.955114e+01    1.919344e+03
  1.960364e+01    1.916547e+03
  1.965615e+01    1.908102e+03
  1.970866e+01    1.906710e+03
  1.976116e+01    1.899641e+03
  1.981367e+01    1.895031e+03
  1.986617e+01    1.887824e+03
  1.991868e+01    1.881416e+03
  1.997119e+01    1.877292e+03
  2.002369e+01    1.872279e+03
  2.007620e+01    1.863647e+03
  2.012870e+01    1.859693e+03
  2.018121e+01    1.854132e+03
  2.023372e+01    1.847666e+03
  2.028622e+01    1.838414e+03
  2.033873e+01    1.830403e+03
  2.039123e+01    1.825684e+03
  2.044374e+01    1.822039e+03
  2.049625e+01    1.815508e+03
  2.054875e+01    1.809456e+03
  2.060126e+01    1.805676e+03
  2.065376e+01    1.801367e+03
  2.070627e+01    1.795569e+03
  2.075878e+01    1.789463e+03
  2.081128e+01    1.798822e+03
  2.086379e+01    1.791795e+03
  2.091629e+01    1.778492e+03
  2.096880e+01    1.764371e+03
  2.102131e+01    1.756624e+03
  2.107381e+01    1.747780e+03
  2.112632e+01    1.735565e+03
  2.117882e+01    1.728659e+03
  2.123133e+01    1.718209e+03
  2.128384e+01    1.709868e+03
  2.133634e+01    1.701561e+03
  2.138885e+01    1.690302e+03
  2.144135e+01    1.683168e+03
  2.149386e+01    1.673902e+03
  2.154637e+01    1.667178e+03
  2.159887e+01    1.658551e+03
  2.165138e+01    1.650555e+03
  2.170388e+01    1.643472e+03
  2.175639e+01    1.639050e+03
  2.180890e+01    1.631301e+03
  2.186140e+01    1.620917e+03
  2.191391e+01    1.615278e+03
  2.196641e+01    1.607385e+03
  2.201892e+01    1.596204e+03
  2.207143e+01    1.589478e+03
  2.212393e+01    1.580090e+03
  2.217644e+01    1.569750e+03
  2.222894e+01    1.562199e+03
  2.228145e+01    1.553946e+03
  2.233396e+01    1.545969e+03
  2.238646e+01    1.536748e+03
  2.243897e+01    1.529824e+03
  2.249147e+01    1.520151e+03
  2.254398e+01    1.514901e+03
  2.259649e+01    1.520183e+03
  2.264899e+01    1.518259e+03
  2.270150e+01    1.515556e+03
  2.275400e+01    1.518895e+03
  2.280651e+01    1.515029e+03
  2.285902e+01    1.514520e+03
  2.291152e+01    1.514164e+03
  2.296403e+01    1.514162e+03
  2.301653e+01    1.513232e+03
  2.306904e+01    1.510254e+03
  2.312155e+01    1.508946e+03
  2.317405e+01    1.504526e+03
  2.322656e+01    1.501682e+03
  2.327906e+01    1.497476e+03
  2.333157e+01    1.496137e+03
  2.338408e+01    1.495681e+03
  2.343658e+01    1.493534e+03
  2.348909e+01    1.489104e+03
  2.354159e+01    1.486233e+03
  2.359410e+01    1.481068e+03
  2.364661e+01    1.479261e+03
  2.369911e+01    1.471981e+03
  2.375162e+01    1.468150e+03
  2.380412e+01    1.459700e+03
  2.385663e+01    1.452846e+03
  2.390914e+01    1.446198e+03
  2.396164e+01    1.441386e+03
  2.401415e+01    1.437943e+03
  2.406665e+01    1.432847e+03
  2.411916e+01    1.425904e+03
  2.417167e+01    1.418216e+03
  2.422417e+01    1.412020e+03
  2.427668e+01    1.405158e+03
  2.432918e+01    1.401257e+03
  2.438169e+01    1.390990e+03
  2.443420e+01    1.389981e+03
  2.448670e+01    1.386457e+03
  2.453921e+01    1.380158e+03
  2.459171e+01    1.375607e+03
  2.464422e+01    1.374298e+03
  2.469673e+01    1.365347e+03
  2.474923e+01    1.357948e+03
  2.480174e+01    1.348099e+03
  2.485425e+01    1.339917e+03
  2.490675e+01    1.331750e+03
  2.495926e+01    1.325255e+03
  2.501176e+01    1.316836e+03
  2.506427e+01    1.306663e+03
  2.511678e+01    1.299198e+03
  2.516928e+01    1.294267e+03
  2.522179e+01    1.288312e+03
  2.527429e+01    1.280666e+03
  2.532680e+01    1.270687e+03
  2.537931e+01    1.263021e+03
  2.543181e+01    1.254344e+03
  2.548432e+01    1.239064e+03
  2.553682e+01    1.228475e+03
  2.558933e+01    1.225434e+03
  2.564184e+01    1.215815e+03
  2.569434e+01    1.200009e+03
  2.574685e+01    1.192796e+03
  2.579935e+01    1.180760e+03
  2.585186e+01    1.170161e+03
  2.590437e+01    1.164431e+03
  2.595687e+01    1.161058e+03
  2.600938e+01    1.154258e+03
  2.606188e+01    1.154537e+03
  2.611439e+01    1.151594e+03
  2.616690e+01    1.143584e+03
  2.621940e+01    1.137245e+03
  2.627191e+01    1.134504e+03
  2.632441e+01    1.131996e+03
  2.637692e+01    1.122257e+03
  2.642943e+01    1.108325e+03
  2.648193e+01    1.096040e+03
