# == pyFAI calibration ==
# Distance Sample to Detector: 0.2945755399789714 m
# PONI: 2.880e-01, 2.450e-01 m
# Rotations: -0.007291 -0.010887 -0.000000 rad
# 
# == Fit2d calibration ==
# Distance Sample-beamCenter: 294.601 mm
# Center: x=1437.174, y=1655.617 pix
# Tilt: 0.751 deg  TiltPlanRot: -56.193 deg
# 
# Detector Pilatus CdTe 2M	 PixelSize= 1.720e-04, 1.720e-04 m
#    Detector has a mask: True 
#    Detector has a dark current: False 
#    detector has a flat field: False 
# 
# Wavelength: 2.0732883349524408e-11 m
# Mask applied: from detector
# Dark current applied: False
# Flat field applied: False
# Polarization factor: 0.9000000000000002
# Normalization factor: 1.0
# --> /gpfs/current/raw/FMue_2_third_run/FMue_2_third_20231024_085044_00036.dat
#        q_A^-1             I 
  2.814346e-01    8.116141e+04
  3.339406e-01    4.626513e+04
  3.864466e-01    3.446763e+04
  4.389526e-01    2.849890e+04
  4.914586e-01    2.457766e+04
  5.439646e-01    2.224470e+04
  5.964706e-01    2.063196e+04
  6.489766e-01    1.920440e+04
  7.014826e-01    1.811451e+04
  7.539886e-01    1.716176e+04
  8.064947e-01    1.636490e+04
  8.590007e-01    1.571343e+04
  9.115067e-01    1.519733e+04
  9.640127e-01    1.477147e+04
  1.016519e+00    1.450482e+04
  1.069025e+00    1.439927e+04
  1.121531e+00    1.449786e+04
  1.174037e+00    1.473761e+04
  1.226543e+00    1.520474e+04
  1.279049e+00    1.609806e+04
  1.331555e+00    1.724976e+04
  1.384061e+00    1.769969e+04
  1.436567e+00    1.765277e+04
  1.489073e+00    1.746230e+04
  1.541579e+00    1.700464e+04
  1.594085e+00    1.628205e+04
  1.646591e+00    1.548526e+04
  1.699097e+00    1.448333e+04
  1.751603e+00    1.354476e+04
  1.804109e+00    1.270394e+04
  1.856615e+00    1.200004e+04
  1.909121e+00    1.148483e+04
  1.961627e+00    1.107408e+04
  2.014133e+00    1.081922e+04
  2.066639e+00    1.085371e+04
  2.119145e+00    1.162216e+04
  2.171651e+00    1.303930e+04
  2.224157e+00    1.280929e+04
  2.276663e+00    1.124508e+04
  2.329169e+00    1.039132e+04
  2.381675e+00    1.021858e+04
  2.434181e+00    1.076247e+04
  2.486687e+00    1.312544e+04
  2.539193e+00    1.862321e+04
  2.591699e+00    1.987471e+04
  2.644205e+00    1.456693e+04
  2.696711e+00    1.113129e+04
  2.749217e+00    9.572384e+03
  2.801723e+00    8.351589e+03
  2.854229e+00    7.572262e+03
  2.906735e+00    7.259558e+03
  2.959241e+00    7.204190e+03
  3.011747e+00    7.683271e+03
  3.064253e+00    9.364982e+03
  3.116759e+00    1.146889e+04
  3.169265e+00    1.147847e+04
  3.221771e+00    9.660089e+03
  3.274277e+00    7.500226e+03
  3.326783e+00    6.609515e+03
  3.379289e+00    6.404566e+03
  3.431795e+00    6.300301e+03
  3.484301e+00    6.255394e+03
  3.536807e+00    6.224593e+03
  3.589313e+00    6.202875e+03
  3.641819e+00    6.307863e+03
  3.694325e+00    6.500636e+03
  3.746831e+00    6.982552e+03
  3.799337e+00    7.451059e+03
  3.851843e+00    7.335316e+03
  3.904349e+00    7.421509e+03
  3.956855e+00    8.507172e+03
  4.009361e+00    1.026713e+04
  4.061867e+00    1.034036e+04
  4.114373e+00    8.903989e+03
  4.166879e+00    7.947888e+03
  4.219385e+00    7.576487e+03
  4.271891e+00    7.823207e+03
  4.324397e+00    9.553951e+03
  4.376903e+00    1.320241e+04
  4.429409e+00    1.468639e+04
  4.481915e+00    1.369836e+04
  4.534421e+00    1.081068e+04
  4.586927e+00    8.021005e+03
  4.639433e+00    6.799010e+03
  4.691939e+00    6.381902e+03
  4.744445e+00    6.205498e+03
  4.796951e+00    6.168686e+03
  4.849457e+00    6.278738e+03
  4.901963e+00    6.409935e+03
  4.954469e+00    6.466271e+03
  5.006975e+00    6.673533e+03
  5.059481e+00    7.186810e+03
  5.111987e+00    7.389892e+03
  5.164493e+00    6.848971e+03
  5.216999e+00    6.143910e+03
  5.269505e+00    5.698643e+03
  5.322011e+00    5.541650e+03
  5.374517e+00    5.541309e+03
  5.427023e+00    5.415546e+03
  5.479529e+00    5.335188e+03
  5.532035e+00    5.086443e+03
  5.584541e+00    4.731565e+03
  5.637047e+00    4.570379e+03
  5.689553e+00    4.557258e+03
  5.742059e+00    4.708302e+03
  5.794565e+00    4.916601e+03
  5.847071e+00    5.069286e+03
  5.899577e+00    5.392678e+03
  5.952083e+00    5.817179e+03
  6.004589e+00    5.579080e+03
  6.057095e+00    5.063991e+03
  6.109601e+00    4.854557e+03
  6.162107e+00    4.893210e+03
  6.214613e+00    4.973856e+03
  6.267119e+00    4.878611e+03
  6.319625e+00    4.725087e+03
  6.372131e+00    4.574563e+03
  6.424637e+00    4.415355e+03
  6.477143e+00    4.288660e+03
  6.529649e+00    4.306880e+03
  6.582155e+00    4.410882e+03
  6.634661e+00    4.560187e+03
  6.687167e+00    4.804195e+03
  6.739673e+00    4.914754e+03
  6.792179e+00    4.605223e+03
  6.844685e+00    4.273297e+03
  6.897191e+00    4.135911e+03
  6.949697e+00    4.187443e+03
  7.002203e+00    4.125443e+03
  7.054709e+00    4.092186e+03
  7.107215e+00    4.030731e+03
  7.159721e+00    3.936484e+03
  7.212227e+00    3.863247e+03
  7.264733e+00    3.877273e+03
  7.317239e+00    3.997539e+03
  7.369745e+00    4.163888e+03
  7.422251e+00    4.221698e+03
  7.474757e+00    4.171070e+03
  7.527263e+00    4.283315e+03
  7.579769e+00    4.577204e+03
  7.632275e+00    4.610035e+03
  7.684781e+00    4.431525e+03
  7.737287e+00    4.427245e+03
  7.789793e+00    4.353426e+03
  7.842299e+00    4.147028e+03
  7.894805e+00    4.078656e+03
  7.947311e+00    4.063878e+03
  7.999817e+00    4.153089e+03
  8.052323e+00    4.118411e+03
  8.104829e+00    3.926541e+03
  8.157335e+00    3.752128e+03
  8.209841e+00    3.659518e+03
  8.262347e+00    3.605248e+03
  8.314853e+00    3.559752e+03
  8.367359e+00    3.519200e+03
  8.419865e+00    3.500820e+03
  8.472371e+00    3.509391e+03
  8.524877e+00    3.512101e+03
  8.577383e+00    3.535841e+03
  8.629889e+00    3.518493e+03
  8.682395e+00    3.483021e+03
  8.734901e+00    3.509093e+03
  8.787407e+00    3.526926e+03
  8.839913e+00    3.473886e+03
  8.892419e+00    3.431542e+03
  8.944925e+00    3.427892e+03
  8.997431e+00    3.425520e+03
  9.049937e+00    3.412268e+03
  9.102443e+00    3.437212e+03
  9.154949e+00    3.446517e+03
  9.207455e+00    3.373712e+03
  9.259961e+00    3.280356e+03
  9.312467e+00    3.222534e+03
  9.364973e+00    3.174834e+03
  9.417480e+00    3.137772e+03
  9.469986e+00    3.159222e+03
  9.522492e+00    3.192457e+03
  9.574998e+00    3.224514e+03
  9.627504e+00    3.253269e+03
  9.680010e+00    3.251305e+03
  9.732516e+00    3.225268e+03
  9.785022e+00    3.215336e+03
  9.837528e+00    3.195317e+03
  9.890034e+00    3.141326e+03
  9.942540e+00    3.107296e+03
  9.995046e+00    3.107210e+03
  1.004755e+01    3.123302e+03
  1.010006e+01    3.121287e+03
  1.015256e+01    3.103815e+03
  1.020507e+01    3.030209e+03
  1.025758e+01    2.951863e+03
  1.031008e+01    2.919195e+03
  1.036259e+01    2.926910e+03
  1.041509e+01    2.914286e+03
  1.046760e+01    2.908913e+03
  1.052011e+01    2.921065e+03
  1.057261e+01    2.925198e+03
  1.062512e+01    2.914880e+03
  1.067762e+01    2.887596e+03
  1.073013e+01    2.867557e+03
  1.078264e+01    2.855352e+03
  1.083514e+01    2.834572e+03
  1.088765e+01    2.838879e+03
  1.094015e+01    2.864763e+03
  1.099266e+01    2.899451e+03
  1.104517e+01    2.902397e+03
  1.109767e+01    2.876476e+03
  1.115018e+01    2.824562e+03
  1.120268e+01    2.793622e+03
  1.125519e+01    2.770741e+03
  1.130770e+01    2.766511e+03
  1.136020e+01    2.771652e+03
  1.141271e+01    2.797534e+03
  1.146521e+01    2.816955e+03
  1.151772e+01    2.834446e+03
  1.157023e+01    2.843207e+03
  1.162273e+01    2.839968e+03
  1.167524e+01    2.794034e+03
  1.172774e+01    2.786512e+03
  1.178025e+01    2.765238e+03
  1.183276e+01    2.770621e+03
  1.188526e+01    2.758326e+03
  1.193777e+01    2.731421e+03
  1.199027e+01    2.687082e+03
  1.204278e+01    2.656481e+03
  1.209529e+01    2.649816e+03
  1.214779e+01    2.657627e+03
  1.220030e+01    2.674890e+03
  1.225280e+01    2.688901e+03
  1.230531e+01    2.682717e+03
  1.235782e+01    2.656172e+03
  1.241032e+01    2.632448e+03
  1.246283e+01    2.620777e+03
  1.251533e+01    2.609616e+03
  1.256784e+01    2.617109e+03
  1.262035e+01    2.610821e+03
  1.267285e+01    2.602271e+03
  1.272536e+01    2.589174e+03
  1.277786e+01    2.574765e+03
  1.283037e+01    2.559861e+03
  1.288288e+01    2.552097e+03
  1.293538e+01    2.540546e+03
  1.298789e+01    2.540865e+03
  1.304039e+01    2.541921e+03
  1.309290e+01    2.543734e+03
  1.314541e+01    2.544099e+03
  1.319791e+01    2.530995e+03
  1.325042e+01    2.509888e+03
  1.330292e+01    2.511051e+03
  1.335543e+01    2.526824e+03
  1.340794e+01    2.531497e+03
  1.346044e+01    2.540824e+03
  1.351295e+01    2.504637e+03
  1.356545e+01    2.482771e+03
  1.361796e+01    2.466915e+03
  1.367047e+01    2.464569e+03
  1.372297e+01    2.465043e+03
  1.377548e+01    2.454843e+03
  1.382798e+01    2.441320e+03
  1.388049e+01    2.425985e+03
  1.393300e+01    2.412252e+03
  1.398550e+01    2.407668e+03
  1.403801e+01    2.405470e+03
  1.409051e+01    2.401025e+03
  1.414302e+01    2.390896e+03
  1.419553e+01    2.382636e+03
  1.424803e+01    2.369110e+03
  1.430054e+01    2.356000e+03
  1.435304e+01    2.353732e+03
  1.440555e+01    2.348298e+03
  1.445806e+01    2.347422e+03
  1.451056e+01    2.336376e+03
  1.456307e+01    2.326395e+03
  1.461557e+01    2.319556e+03
  1.466808e+01    2.315063e+03
  1.472059e+01    2.313388e+03
  1.477309e+01    2.315375e+03
  1.482560e+01    2.306805e+03
  1.487810e+01    2.294345e+03
  1.493061e+01    2.284507e+03
  1.498312e+01    2.279964e+03
  1.503562e+01    2.280354e+03
  1.508813e+01    2.279537e+03
  1.514063e+01    2.282260e+03
  1.519314e+01    2.293206e+03
  1.524565e+01    2.320321e+03
  1.529815e+01    2.301191e+03
  1.535066e+01    2.293955e+03
  1.540316e+01    2.289837e+03
  1.545567e+01    2.276176e+03
  1.550818e+01    2.277335e+03
  1.556068e+01    2.268839e+03
  1.561319e+01    2.262658e+03
  1.566569e+01    2.259810e+03
  1.571820e+01    2.260170e+03
  1.577071e+01    2.259549e+03
  1.582321e+01    2.254148e+03
  1.587572e+01    2.248859e+03
  1.592822e+01    2.240101e+03
  1.598073e+01    2.231596e+03
  1.603324e+01    2.214803e+03
  1.608574e+01    2.198589e+03
  1.613825e+01    2.186781e+03
  1.619075e+01    2.189672e+03
  1.624326e+01    2.205383e+03
  1.629577e+01    2.200421e+03
  1.634827e+01    2.193585e+03
  1.640078e+01    2.192218e+03
  1.645328e+01    2.187767e+03
  1.650579e+01    2.188309e+03
  1.655830e+01    2.189208e+03
  1.661080e+01    2.185551e+03
  1.666331e+01    2.180353e+03
  1.671581e+01    2.174069e+03
  1.676832e+01    2.172465e+03
  1.682083e+01    2.168167e+03
  1.687333e+01    2.165033e+03
  1.692584e+01    2.164015e+03
  1.697834e+01    2.161502e+03
  1.703085e+01    2.155821e+03
  1.708336e+01    2.155922e+03
  1.713586e+01    2.149185e+03
  1.718837e+01    2.144620e+03
  1.724087e+01    2.138719e+03
  1.729338e+01    2.132095e+03
  1.734589e+01    2.125966e+03
  1.739839e+01    2.120832e+03
  1.745090e+01    2.119427e+03
  1.750340e+01    2.117948e+03
  1.755591e+01    2.110760e+03
  1.760842e+01    2.110872e+03
  1.766092e+01    2.104686e+03
  1.771343e+01    2.103720e+03
  1.776593e+01    2.098096e+03
  1.781844e+01    2.091071e+03
  1.787095e+01    2.087308e+03
  1.792345e+01    2.080916e+03
  1.797596e+01    2.077590e+03
  1.802846e+01    2.074572e+03
  1.808097e+01    2.066199e+03
  1.813348e+01    2.059565e+03
  1.818598e+01    2.053420e+03
  1.823849e+01    2.057731e+03
  1.829099e+01    2.045764e+03
  1.834350e+01    2.040931e+03
  1.839601e+01    2.036771e+03
  1.844851e+01    2.029375e+03
  1.850102e+01    2.028330e+03
  1.855352e+01    2.021404e+03
  1.860603e+01    2.018509e+03
  1.865854e+01    2.026960e+03
  1.871104e+01    2.033857e+03
  1.876355e+01    2.023301e+03
  1.881605e+01    2.017681e+03
  1.886856e+01    2.014142e+03
  1.892107e+01    2.011111e+03
  1.897357e+01    2.005223e+03
  1.902608e+01    2.000864e+03
  1.907858e+01    1.994104e+03
  1.913109e+01    1.987394e+03
  1.918360e+01    1.983186e+03
  1.923610e+01    1.976184e+03
  1.928861e+01    1.969784e+03
  1.934111e+01    1.967044e+03
  1.939362e+01    1.956947e+03
  1.944613e+01    1.953737e+03
  1.949863e+01    1.947440e+03
  1.955114e+01    1.940007e+03
  1.960364e+01    1.936562e+03
  1.965615e+01    1.929195e+03
  1.970866e+01    1.927798e+03
  1.976116e+01    1.921164e+03
  1.981367e+01    1.917609e+03
  1.986617e+01    1.911065e+03
  1.991868e+01    1.903538e+03
  1.997119e+01    1.899890e+03
  2.002369e+01    1.894702e+03
  2.007620e+01    1.887172e+03
  2.012870e+01    1.881973e+03
  2.018121e+01    1.876338e+03
  2.023372e+01    1.871014e+03
  2.028622e+01    1.860398e+03
  2.033873e+01    1.853903e+03
  2.039123e+01    1.849587e+03
  2.044374e+01    1.844458e+03
  2.049625e+01    1.840018e+03
  2.054875e+01    1.833178e+03
  2.060126e+01    1.829322e+03
  2.065376e+01    1.823931e+03
  2.070627e+01    1.817878e+03
  2.075878e+01    1.812571e+03
  2.081128e+01    1.820191e+03
  2.086379e+01    1.815290e+03
  2.091629e+01    1.800214e+03
  2.096880e+01    1.789047e+03
  2.102131e+01    1.780368e+03
  2.107381e+01    1.771669e+03
  2.112632e+01    1.759633e+03
  2.117882e+01    1.752652e+03
  2.123133e+01    1.741254e+03
  2.128384e+01    1.732409e+03
  2.133634e+01    1.723115e+03
  2.138885e+01    1.710689e+03
  2.144135e+01    1.705068e+03
  2.149386e+01    1.695815e+03
  2.154637e+01    1.688881e+03
  2.159887e+01    1.682302e+03
  2.165138e+01    1.671828e+03
  2.170388e+01    1.665513e+03
  2.175639e+01    1.661686e+03
  2.180890e+01    1.654024e+03
  2.186140e+01    1.643240e+03
  2.191391e+01    1.636694e+03
  2.196641e+01    1.628219e+03
  2.201892e+01    1.619855e+03
  2.207143e+01    1.610855e+03
  2.212393e+01    1.600361e+03
  2.217644e+01    1.593381e+03
  2.222894e+01    1.584038e+03
  2.228145e+01    1.576566e+03
  2.233396e+01    1.569333e+03
  2.238646e+01    1.558558e+03
  2.243897e+01    1.550763e+03
  2.249147e+01    1.541645e+03
  2.254398e+01    1.539038e+03
  2.259649e+01    1.541720e+03
  2.264899e+01    1.539162e+03
  2.270150e+01    1.538481e+03
  2.275400e+01    1.538527e+03
  2.280651e+01    1.538125e+03
  2.285902e+01    1.539026e+03
  2.291152e+01    1.537230e+03
  2.296403e+01    1.537719e+03
  2.301653e+01    1.536586e+03
  2.306904e+01    1.534891e+03
  2.312155e+01    1.532312e+03
  2.317405e+01    1.528302e+03
  2.322656e+01    1.524773e+03
  2.327906e+01    1.520572e+03
  2.333157e+01    1.520467e+03
  2.338408e+01    1.520451e+03
  2.343658e+01    1.517341e+03
  2.348909e+01    1.514211e+03
  2.354159e+01    1.509733e+03
  2.359410e+01    1.508518e+03
  2.364661e+01    1.505433e+03
  2.369911e+01    1.499167e+03
  2.375162e+01    1.494568e+03
  2.380412e+01    1.488984e+03
  2.385663e+01    1.479991e+03
  2.390914e+01    1.474521e+03
  2.396164e+01    1.470646e+03
  2.401415e+01    1.464398e+03
  2.406665e+01    1.460233e+03
  2.411916e+01    1.454305e+03
  2.417167e+01    1.446353e+03
  2.422417e+01    1.439903e+03
  2.427668e+01    1.432288e+03
  2.432918e+01    1.427834e+03
  2.438169e+01    1.420143e+03
  2.443420e+01    1.417552e+03
  2.448670e+01    1.410558e+03
  2.453921e+01    1.407858e+03
  2.459171e+01    1.404132e+03
  2.464422e+01    1.400855e+03
  2.469673e+01    1.393126e+03
  2.474923e+01    1.384130e+03
  2.480174e+01    1.374718e+03
  2.485425e+01    1.365950e+03
  2.490675e+01    1.359387e+03
  2.495926e+01    1.349797e+03
  2.501176e+01    1.341839e+03
  2.506427e+01    1.335242e+03
  2.511678e+01    1.328073e+03
  2.516928e+01    1.321259e+03
  2.522179e+01    1.313141e+03
  2.527429e+01    1.309645e+03
  2.532680e+01    1.299569e+03
  2.537931e+01    1.290112e+03
  2.543181e+01    1.285535e+03
  2.548432e+01    1.267062e+03
  2.553682e+01    1.259312e+03
  2.558933e+01    1.252619e+03
  2.564184e+01    1.241720e+03
  2.569434e+01    1.228059e+03
  2.574685e+01    1.221056e+03
  2.579935e+01    1.206072e+03
  2.585186e+01    1.196950e+03
  2.590437e+01    1.190982e+03
  2.595687e+01    1.186115e+03
  2.600938e+01    1.181917e+03
  2.606188e+01    1.180095e+03
  2.611439e+01    1.175865e+03
  2.616690e+01    1.167433e+03
  2.621940e+01    1.159389e+03
  2.627191e+01    1.151679e+03
  2.632441e+01    1.149757e+03
  2.637692e+01    1.145089e+03
  2.642943e+01    1.136906e+03
  2.648193e+01    1.115996e+03
