# == pyFAI calibration ==
# Distance Sample to Detector: 0.2945755399789714 m
# PONI: 2.880e-01, 2.450e-01 m
# Rotations: -0.007291 -0.010887 -0.000000 rad
# 
# == Fit2d calibration ==
# Distance Sample-beamCenter: 294.601 mm
# Center: x=1437.174, y=1655.617 pix
# Tilt: 0.751 deg  TiltPlanRot: -56.193 deg
# 
# Detector Pilatus CdTe 2M	 PixelSize= 1.720e-04, 1.720e-04 m
#    Detector has a mask: True 
#    Detector has a dark current: False 
#    detector has a flat field: False 
# 
# Wavelength: 2.0732883349524408e-11 m
# Mask applied: from detector
# Dark current applied: False
# Flat field applied: False
# Polarization factor: 0.9000000000000002
# Normalization factor: 1.0
# --> /gpfs/current/raw/FMue_2_third_run/FMue_2_third_20231024_085044_00038.dat
#        q_A^-1             I 
  2.814346e-01    8.109235e+04
  3.339406e-01    4.622530e+04
  3.864466e-01    3.442395e+04
  4.389526e-01    2.844797e+04
  4.914586e-01    2.453300e+04
  5.439646e-01    2.220462e+04
  5.964706e-01    2.059171e+04
  6.489766e-01    1.916304e+04
  7.014826e-01    1.807148e+04
  7.539886e-01    1.712967e+04
  8.064947e-01    1.634947e+04
  8.590007e-01    1.568152e+04
  9.115067e-01    1.518060e+04
  9.640127e-01    1.475594e+04
  1.016519e+00    1.446659e+04
  1.069025e+00    1.436281e+04
  1.121531e+00    1.445267e+04
  1.174037e+00    1.470184e+04
  1.226543e+00    1.517099e+04
  1.279049e+00    1.607136e+04
  1.331555e+00    1.720238e+04
  1.384061e+00    1.765064e+04
  1.436567e+00    1.761086e+04
  1.489073e+00    1.742868e+04
  1.541579e+00    1.697972e+04
  1.594085e+00    1.624722e+04
  1.646591e+00    1.543850e+04
  1.699097e+00    1.443950e+04
  1.751603e+00    1.351404e+04
  1.804109e+00    1.267328e+04
  1.856615e+00    1.197583e+04
  1.909121e+00    1.145488e+04
  1.961627e+00    1.104803e+04
  2.014133e+00    1.080117e+04
  2.066639e+00    1.082171e+04
  2.119145e+00    1.160482e+04
  2.171651e+00    1.302079e+04
  2.224157e+00    1.276904e+04
  2.276663e+00    1.121281e+04
  2.329169e+00    1.035991e+04
  2.381675e+00    1.020322e+04
  2.434181e+00    1.074855e+04
  2.486687e+00    1.310890e+04
  2.539193e+00    1.861722e+04
  2.591699e+00    1.980862e+04
  2.644205e+00    1.451493e+04
  2.696711e+00    1.110637e+04
  2.749217e+00    9.552589e+03
  2.801723e+00    8.322544e+03
  2.854229e+00    7.556806e+03
  2.906735e+00    7.238251e+03
  2.959241e+00    7.194603e+03
  3.011747e+00    7.671536e+03
  3.064253e+00    9.363685e+03
  3.116759e+00    1.144288e+04
  3.169265e+00    1.144279e+04
  3.221771e+00    9.629965e+03
  3.274277e+00    7.474618e+03
  3.326783e+00    6.595841e+03
  3.379289e+00    6.391599e+03
  3.431795e+00    6.287880e+03
  3.484301e+00    6.247500e+03
  3.536807e+00    6.217105e+03
  3.589313e+00    6.198089e+03
  3.641819e+00    6.298761e+03
  3.694325e+00    6.495019e+03
  3.746831e+00    6.971139e+03
  3.799337e+00    7.424135e+03
  3.851843e+00    7.315828e+03
  3.904349e+00    7.410897e+03
  3.956855e+00    8.497516e+03
  4.009361e+00    1.025143e+04
  4.061867e+00    1.030338e+04
  4.114373e+00    8.876716e+03
  4.166879e+00    7.924349e+03
  4.219385e+00    7.569565e+03
  4.271891e+00    7.816201e+03
  4.324397e+00    9.560987e+03
  4.376903e+00    1.318263e+04
  4.429409e+00    1.464794e+04
  4.481915e+00    1.364083e+04
  4.534421e+00    1.075706e+04
  4.586927e+00    7.996948e+03
  4.639433e+00    6.783570e+03
  4.691939e+00    6.369377e+03
  4.744445e+00    6.196110e+03
  4.796951e+00    6.159479e+03
  4.849457e+00    6.274376e+03
  4.901963e+00    6.404968e+03
  4.954469e+00    6.456727e+03
  5.006975e+00    6.666026e+03
  5.059481e+00    7.177183e+03
  5.111987e+00    7.372995e+03
  5.164493e+00    6.828631e+03
  5.216999e+00    6.123895e+03
  5.269505e+00    5.683459e+03
  5.322011e+00    5.530959e+03
  5.374517e+00    5.529700e+03
  5.427023e+00    5.401214e+03
  5.479529e+00    5.321084e+03
  5.532035e+00    5.072892e+03
  5.584541e+00    4.724764e+03
  5.637047e+00    4.562208e+03
  5.689553e+00    4.547106e+03
  5.742059e+00    4.699206e+03
  5.794565e+00    4.905473e+03
  5.847071e+00    5.057222e+03
  5.899577e+00    5.382286e+03
  5.952083e+00    5.802324e+03
  6.004589e+00    5.554398e+03
  6.057095e+00    5.044756e+03
  6.109601e+00    4.845084e+03
  6.162107e+00    4.886528e+03
  6.214613e+00    4.962387e+03
  6.267119e+00    4.864793e+03
  6.319625e+00    4.710533e+03
  6.372131e+00    4.566376e+03
  6.424637e+00    4.405487e+03
  6.477143e+00    4.282081e+03
  6.529649e+00    4.300883e+03
  6.582155e+00    4.404291e+03
  6.634661e+00    4.554884e+03
  6.687167e+00    4.795155e+03
  6.739673e+00    4.897804e+03
  6.792179e+00    4.589712e+03
  6.844685e+00    4.259046e+03
  6.897191e+00    4.132153e+03
  6.949697e+00    4.174313e+03
  7.002203e+00    4.119159e+03
  7.054709e+00    4.083984e+03
  7.107215e+00    4.023139e+03
  7.159721e+00    3.926485e+03
  7.212227e+00    3.861972e+03
  7.264733e+00    3.871357e+03
  7.317239e+00    3.989307e+03
  7.369745e+00    4.156836e+03
  7.422251e+00    4.208547e+03
  7.474757e+00    4.160419e+03
  7.527263e+00    4.275644e+03
  7.579769e+00    4.571576e+03
  7.632275e+00    4.592435e+03
  7.684781e+00    4.418652e+03
  7.737287e+00    4.413679e+03
  7.789793e+00    4.342209e+03
  7.842299e+00    4.137880e+03
  7.894805e+00    4.066783e+03
  7.947311e+00    4.056525e+03
  7.999817e+00    4.141491e+03
  8.052323e+00    4.104092e+03
  8.104829e+00    3.915346e+03
  8.157335e+00    3.745701e+03
  8.209841e+00    3.650619e+03
  8.262347e+00    3.599039e+03
  8.314853e+00    3.551587e+03
  8.367359e+00    3.512758e+03
  8.419865e+00    3.493376e+03
  8.472371e+00    3.499052e+03
  8.524877e+00    3.505360e+03
  8.577383e+00    3.525562e+03
  8.629889e+00    3.509407e+03
  8.682395e+00    3.476395e+03
  8.734901e+00    3.501971e+03
  8.787407e+00    3.517341e+03
  8.839913e+00    3.466380e+03
  8.892419e+00    3.424570e+03
  8.944925e+00    3.420372e+03
  8.997431e+00    3.416112e+03
  9.049937e+00    3.404347e+03
  9.102443e+00    3.428448e+03
  9.154949e+00    3.438406e+03
  9.207455e+00    3.362420e+03
  9.259961e+00    3.272796e+03
  9.312467e+00    3.219894e+03
  9.364973e+00    3.166098e+03
  9.417480e+00    3.132573e+03
  9.469986e+00    3.154518e+03
  9.522492e+00    3.183928e+03
  9.574998e+00    3.217989e+03
  9.627504e+00    3.245352e+03
  9.680010e+00    3.242173e+03
  9.732516e+00    3.216054e+03
  9.785022e+00    3.205058e+03
  9.837528e+00    3.185684e+03
  9.890034e+00    3.133646e+03
  9.942540e+00    3.098993e+03
  9.995046e+00    3.099359e+03
  1.004755e+01    3.116285e+03
  1.010006e+01    3.113673e+03
  1.015256e+01    3.093776e+03
  1.020507e+01    3.021754e+03
  1.025758e+01    2.944704e+03
  1.031008e+01    2.912995e+03
  1.036259e+01    2.921156e+03
  1.041509e+01    2.904562e+03
  1.046760e+01    2.900999e+03
  1.052011e+01    2.914949e+03
  1.057261e+01    2.917457e+03
  1.062512e+01    2.907544e+03
  1.067762e+01    2.879577e+03
  1.073013e+01    2.861545e+03
  1.078264e+01    2.848032e+03
  1.083514e+01    2.829642e+03
  1.088765e+01    2.832303e+03
  1.094015e+01    2.858660e+03
  1.099266e+01    2.891071e+03
  1.104517e+01    2.895619e+03
  1.109767e+01    2.867223e+03
  1.115018e+01    2.815739e+03
  1.120268e+01    2.787567e+03
  1.125519e+01    2.765220e+03
  1.130770e+01    2.759714e+03
  1.136020e+01    2.765928e+03
  1.141271e+01    2.793357e+03
  1.146521e+01    2.809899e+03
  1.151772e+01    2.825674e+03
  1.157023e+01    2.835225e+03
  1.162273e+01    2.831007e+03
  1.167524e+01    2.788472e+03
  1.172774e+01    2.784157e+03
  1.178025e+01    2.760182e+03
  1.183276e+01    2.761727e+03
  1.188526e+01    2.752245e+03
  1.193777e+01    2.725431e+03
  1.199027e+01    2.680459e+03
  1.204278e+01    2.650643e+03
  1.209529e+01    2.644897e+03
  1.214779e+01    2.651867e+03
  1.220030e+01    2.668151e+03
  1.225280e+01    2.680409e+03
  1.230531e+01    2.675512e+03
  1.235782e+01    2.650045e+03
  1.241032e+01    2.624362e+03
  1.246283e+01    2.615660e+03
  1.251533e+01    2.605289e+03
  1.256784e+01    2.609483e+03
  1.262035e+01    2.605890e+03
  1.267285e+01    2.597500e+03
  1.272536e+01    2.583231e+03
  1.277786e+01    2.569297e+03
  1.283037e+01    2.551282e+03
  1.288288e+01    2.544553e+03
  1.293538e+01    2.534960e+03
  1.298789e+01    2.535737e+03
  1.304039e+01    2.537833e+03
  1.309290e+01    2.539302e+03
  1.314541e+01    2.537189e+03
  1.319791e+01    2.521694e+03
  1.325042e+01    2.504578e+03
  1.330292e+01    2.506052e+03
  1.335543e+01    2.516188e+03
  1.340794e+01    2.521615e+03
  1.346044e+01    2.532479e+03
  1.351295e+01    2.495730e+03
  1.356545e+01    2.475167e+03
  1.361796e+01    2.461304e+03
  1.367047e+01    2.459112e+03
  1.372297e+01    2.459345e+03
  1.377548e+01    2.448531e+03
  1.382798e+01    2.435514e+03
  1.388049e+01    2.421290e+03
  1.393300e+01    2.406696e+03
  1.398550e+01    2.402965e+03
  1.403801e+01    2.402225e+03
  1.409051e+01    2.395027e+03
  1.414302e+01    2.383859e+03
  1.419553e+01    2.376521e+03
  1.424803e+01    2.361390e+03
  1.430054e+01    2.351306e+03
  1.435304e+01    2.348021e+03
  1.440555e+01    2.342648e+03
  1.445806e+01    2.338175e+03
  1.451056e+01    2.330911e+03
  1.456307e+01    2.320016e+03
  1.461557e+01    2.315738e+03
  1.466808e+01    2.306888e+03
  1.472059e+01    2.307262e+03
  1.477309e+01    2.309344e+03
  1.482560e+01    2.302240e+03
  1.487810e+01    2.288210e+03
  1.493061e+01    2.279754e+03
  1.498312e+01    2.274810e+03
  1.503562e+01    2.272906e+03
  1.508813e+01    2.272688e+03
  1.514063e+01    2.274992e+03
  1.519314e+01    2.287108e+03
  1.524565e+01    2.314320e+03
  1.529815e+01    2.295460e+03
  1.535066e+01    2.288054e+03
  1.540316e+01    2.284875e+03
  1.545567e+01    2.269471e+03
  1.550818e+01    2.270762e+03
  1.556068e+01    2.263971e+03
  1.561319e+01    2.255163e+03
  1.566569e+01    2.254264e+03
  1.571820e+01    2.257159e+03
  1.577071e+01    2.252924e+03
  1.582321e+01    2.249664e+03
  1.587572e+01    2.242611e+03
  1.592822e+01    2.233329e+03
  1.598073e+01    2.226869e+03
  1.603324e+01    2.209374e+03
  1.608574e+01    2.194101e+03
  1.613825e+01    2.181808e+03
  1.619075e+01    2.184144e+03
  1.624326e+01    2.198651e+03
  1.629577e+01    2.193776e+03
  1.634827e+01    2.189418e+03
  1.640078e+01    2.185623e+03
  1.645328e+01    2.181428e+03
  1.650579e+01    2.183302e+03
  1.655830e+01    2.184576e+03
  1.661080e+01    2.180044e+03
  1.666331e+01    2.176030e+03
  1.671581e+01    2.168967e+03
  1.676832e+01    2.165389e+03
  1.682083e+01    2.160068e+03
  1.687333e+01    2.158800e+03
  1.692584e+01    2.159708e+03
  1.697834e+01    2.155293e+03
  1.703085e+01    2.151123e+03
  1.708336e+01    2.151761e+03
  1.713586e+01    2.143393e+03
  1.718837e+01    2.139802e+03
  1.724087e+01    2.132751e+03
  1.729338e+01    2.126210e+03
  1.734589e+01    2.120240e+03
  1.739839e+01    2.115671e+03
  1.745090e+01    2.112975e+03
  1.750340e+01    2.112941e+03
  1.755591e+01    2.106589e+03
  1.760842e+01    2.105936e+03
  1.766092e+01    2.099940e+03
  1.771343e+01    2.099205e+03
  1.776593e+01    2.092813e+03
  1.781844e+01    2.086356e+03
  1.787095e+01    2.082355e+03
  1.792345e+01    2.076730e+03
  1.797596e+01    2.073098e+03
  1.802846e+01    2.068913e+03
  1.808097e+01    2.061461e+03
  1.813348e+01    2.055767e+03
  1.818598e+01    2.047488e+03
  1.823849e+01    2.053747e+03
  1.829099e+01    2.041191e+03
  1.834350e+01    2.037132e+03
  1.839601e+01    2.030196e+03
  1.844851e+01    2.025729e+03
  1.850102e+01    2.024577e+03
  1.855352e+01    2.015055e+03
  1.860603e+01    2.012471e+03
  1.865854e+01    2.023495e+03
  1.871104e+01    2.028888e+03
  1.876355e+01    2.016415e+03
  1.881605e+01    2.012061e+03
  1.886856e+01    2.011760e+03
  1.892107e+01    2.006461e+03
  1.897357e+01    2.002644e+03
  1.902608e+01    1.993736e+03
  1.907858e+01    1.989374e+03
  1.913109e+01    1.982498e+03
  1.918360e+01    1.977483e+03
  1.923610e+01    1.973285e+03
  1.928861e+01    1.965697e+03
  1.934111e+01    1.961062e+03
  1.939362e+01    1.952628e+03
  1.944613e+01    1.948907e+03
  1.949863e+01    1.942320e+03
  1.955114e+01    1.934614e+03
  1.960364e+01    1.931147e+03
  1.965615e+01    1.924234e+03
  1.970866e+01    1.921499e+03
  1.976116e+01    1.915113e+03
  1.981367e+01    1.911205e+03
  1.986617e+01    1.905745e+03
  1.991868e+01    1.898372e+03
  1.997119e+01    1.893708e+03
  2.002369e+01    1.889859e+03
  2.007620e+01    1.881827e+03
  2.012870e+01    1.876116e+03
  2.018121e+01    1.869534e+03
  2.023372e+01    1.865434e+03
  2.028622e+01    1.856107e+03
  2.033873e+01    1.848887e+03
  2.039123e+01    1.843301e+03
  2.044374e+01    1.837886e+03
  2.049625e+01    1.834718e+03
  2.054875e+01    1.827910e+03
  2.060126e+01    1.823040e+03
  2.065376e+01    1.818722e+03
  2.070627e+01    1.811261e+03
  2.075878e+01    1.807609e+03
  2.081128e+01    1.815665e+03
  2.086379e+01    1.810744e+03
  2.091629e+01    1.794255e+03
  2.096880e+01    1.783487e+03
  2.102131e+01    1.775381e+03
  2.107381e+01    1.766588e+03
  2.112632e+01    1.754012e+03
  2.117882e+01    1.746388e+03
  2.123133e+01    1.735420e+03
  2.128384e+01    1.727200e+03
  2.133634e+01    1.718430e+03
  2.138885e+01    1.706026e+03
  2.144135e+01    1.698723e+03
  2.149386e+01    1.690826e+03
  2.154637e+01    1.683483e+03
  2.159887e+01    1.675849e+03
  2.165138e+01    1.667266e+03
  2.170388e+01    1.661221e+03
  2.175639e+01    1.657737e+03
  2.180890e+01    1.649439e+03
  2.186140e+01    1.638568e+03
  2.191391e+01    1.631390e+03
  2.196641e+01    1.623818e+03
  2.201892e+01    1.614262e+03
  2.207143e+01    1.606820e+03
  2.212393e+01    1.597484e+03
  2.217644e+01    1.586234e+03
  2.222894e+01    1.578574e+03
  2.228145e+01    1.572049e+03
  2.233396e+01    1.563301e+03
  2.238646e+01    1.553283e+03
  2.243897e+01    1.546679e+03
  2.249147e+01    1.538289e+03
  2.254398e+01    1.532735e+03
  2.259649e+01    1.536554e+03
  2.264899e+01    1.533600e+03
  2.270150e+01    1.533545e+03
  2.275400e+01    1.533925e+03
  2.280651e+01    1.533186e+03
  2.285902e+01    1.532952e+03
  2.291152e+01    1.531975e+03
  2.296403e+01    1.533559e+03
  2.301653e+01    1.531144e+03
  2.306904e+01    1.530589e+03
  2.312155e+01    1.527078e+03
  2.317405e+01    1.522996e+03
  2.322656e+01    1.519101e+03
  2.327906e+01    1.514283e+03
  2.333157e+01    1.515610e+03
  2.338408e+01    1.515460e+03
  2.343658e+01    1.514701e+03
  2.348909e+01    1.509798e+03
  2.354159e+01    1.505747e+03
  2.359410e+01    1.501550e+03
  2.364661e+01    1.498688e+03
  2.369911e+01    1.495074e+03
  2.375162e+01    1.489839e+03
  2.380412e+01    1.481379e+03
  2.385663e+01    1.475041e+03
  2.390914e+01    1.470368e+03
  2.396164e+01    1.464618e+03
  2.401415e+01    1.462198e+03
  2.406665e+01    1.455882e+03
  2.411916e+01    1.449647e+03
  2.417167e+01    1.440826e+03
  2.422417e+01    1.434120e+03
  2.427668e+01    1.425753e+03
  2.432918e+01    1.423820e+03
  2.438169e+01    1.416391e+03
  2.443420e+01    1.411258e+03
  2.448670e+01    1.406701e+03
  2.453921e+01    1.401282e+03
  2.459171e+01    1.399225e+03
  2.464422e+01    1.395726e+03
  2.469673e+01    1.386431e+03
  2.474923e+01    1.379468e+03
  2.480174e+01    1.369439e+03
  2.485425e+01    1.363814e+03
  2.490675e+01    1.355502e+03
  2.495926e+01    1.347962e+03
  2.501176e+01    1.339398e+03
  2.506427e+01    1.328900e+03
  2.511678e+01    1.321353e+03
  2.516928e+01    1.319471e+03
  2.522179e+01    1.312166e+03
  2.527429e+01    1.304210e+03
  2.532680e+01    1.294941e+03
  2.537931e+01    1.286356e+03
  2.543181e+01    1.279810e+03
  2.548432e+01    1.266153e+03
  2.553682e+01    1.254262e+03
  2.558933e+01    1.246675e+03
  2.564184e+01    1.239813e+03
  2.569434e+01    1.224283e+03
  2.574685e+01    1.214086e+03
  2.579935e+01    1.203148e+03
  2.585186e+01    1.194481e+03
  2.590437e+01    1.188380e+03
  2.595687e+01    1.182900e+03
  2.600938e+01    1.174969e+03
  2.606188e+01    1.177794e+03
  2.611439e+01    1.170905e+03
  2.616690e+01    1.171742e+03
  2.621940e+01    1.157439e+03
  2.627191e+01    1.153655e+03
  2.632441e+01    1.150624e+03
  2.637692e+01    1.149147e+03
  2.642943e+01    1.134253e+03
  2.648193e+01    1.113624e+03
