# == pyFAI calibration ==
# Distance Sample to Detector: 0.2945755399789714 m
# PONI: 2.880e-01, 2.450e-01 m
# Rotations: -0.007291 -0.010887 -0.000000 rad
# 
# == Fit2d calibration ==
# Distance Sample-beamCenter: 294.601 mm
# Center: x=1437.174, y=1655.617 pix
# Tilt: 0.751 deg  TiltPlanRot: -56.193 deg
# 
# Detector Pilatus CdTe 2M	 PixelSize= 1.720e-04, 1.720e-04 m
#    Detector has a mask: True 
#    Detector has a dark current: False 
#    detector has a flat field: False 
# 
# Wavelength: 2.0732883349524408e-11 m
# Mask applied: from detector
# Dark current applied: False
# Flat field applied: False
# Polarization factor: 0.9000000000000002
# Normalization factor: 1.0
# --> /gpfs/current/raw/FMue_2_third_run/FMue_2_third_20231024_085044_00032.dat
#        q_A^-1             I 
  2.814346e-01    8.146172e+04
  3.339406e-01    4.647778e+04
  3.864466e-01    3.464719e+04
  4.389526e-01    2.862897e+04
  4.914586e-01    2.468162e+04
  5.439646e-01    2.234732e+04
  5.964706e-01    2.072296e+04
  6.489766e-01    1.930821e+04
  7.014826e-01    1.822959e+04
  7.539886e-01    1.724691e+04
  8.064947e-01    1.647181e+04
  8.590007e-01    1.579774e+04
  9.115067e-01    1.529805e+04
  9.640127e-01    1.486500e+04
  1.016519e+00    1.458657e+04
  1.069025e+00    1.446709e+04
  1.121531e+00    1.457407e+04
  1.174037e+00    1.481275e+04
  1.226543e+00    1.529151e+04
  1.279049e+00    1.618469e+04
  1.331555e+00    1.732496e+04
  1.384061e+00    1.779271e+04
  1.436567e+00    1.775554e+04
  1.489073e+00    1.756404e+04
  1.541579e+00    1.710089e+04
  1.594085e+00    1.638556e+04
  1.646591e+00    1.556712e+04
  1.699097e+00    1.456555e+04
  1.751603e+00    1.362603e+04
  1.804109e+00    1.277417e+04
  1.856615e+00    1.208075e+04
  1.909121e+00    1.154921e+04
  1.961627e+00    1.113865e+04
  2.014133e+00    1.087500e+04
  2.066639e+00    1.091077e+04
  2.119145e+00    1.168017e+04
  2.171651e+00    1.311635e+04
  2.224157e+00    1.289320e+04
  2.276663e+00    1.132327e+04
  2.329169e+00    1.044542e+04
  2.381675e+00    1.027051e+04
  2.434181e+00    1.080321e+04
  2.486687e+00    1.315674e+04
  2.539193e+00    1.867546e+04
  2.591699e+00    2.002658e+04
  2.644205e+00    1.470914e+04
  2.696711e+00    1.121627e+04
  2.749217e+00    9.634089e+03
  2.801723e+00    8.405123e+03
  2.854229e+00    7.617125e+03
  2.906735e+00    7.290792e+03
  2.959241e+00    7.243832e+03
  3.011747e+00    7.705193e+03
  3.064253e+00    9.388151e+03
  3.116759e+00    1.152266e+04
  3.169265e+00    1.155842e+04
  3.221771e+00    9.742492e+03
  3.274277e+00    7.555135e+03
  3.326783e+00    6.648226e+03
  3.379289e+00    6.430951e+03
  3.431795e+00    6.328741e+03
  3.484301e+00    6.286512e+03
  3.536807e+00    6.257291e+03
  3.589313e+00    6.232600e+03
  3.641819e+00    6.335962e+03
  3.694325e+00    6.530868e+03
  3.746831e+00    7.012812e+03
  3.799337e+00    7.479304e+03
  3.851843e+00    7.380705e+03
  3.904349e+00    7.450009e+03
  3.956855e+00    8.533248e+03
  4.009361e+00    1.031359e+04
  4.061867e+00    1.041588e+04
  4.114373e+00    8.980169e+03
  4.166879e+00    7.999059e+03
  4.219385e+00    7.616979e+03
  4.271891e+00    7.851929e+03
  4.324397e+00    9.562028e+03
  4.376903e+00    1.324118e+04
  4.429409e+00    1.478798e+04
  4.481915e+00    1.383000e+04
  4.534421e+00    1.093572e+04
  4.586927e+00    8.093261e+03
  4.639433e+00    6.838062e+03
  4.691939e+00    6.411421e+03
  4.744445e+00    6.234018e+03
  4.796951e+00    6.193835e+03
  4.849457e+00    6.308608e+03
  4.901963e+00    6.442526e+03
  4.954469e+00    6.492245e+03
  5.006975e+00    6.701195e+03
  5.059481e+00    7.218364e+03
  5.111987e+00    7.441706e+03
  5.164493e+00    6.899117e+03
  5.216999e+00    6.181901e+03
  5.269505e+00    5.730464e+03
  5.322011e+00    5.567372e+03
  5.374517e+00    5.563534e+03
  5.427023e+00    5.440793e+03
  5.479529e+00    5.361781e+03
  5.532035e+00    5.118200e+03
  5.584541e+00    4.760198e+03
  5.637047e+00    4.588311e+03
  5.689553e+00    4.575010e+03
  5.742059e+00    4.723600e+03
  5.794565e+00    4.942973e+03
  5.847071e+00    5.092622e+03
  5.899577e+00    5.418121e+03
  5.952083e+00    5.856628e+03
  6.004589e+00    5.620348e+03
  6.057095e+00    5.098576e+03
  6.109601e+00    4.884346e+03
  6.162107e+00    4.920528e+03
  6.214613e+00    5.007623e+03
  6.267119e+00    4.908080e+03
  6.319625e+00    4.750539e+03
  6.372131e+00    4.606436e+03
  6.424637e+00    4.437298e+03
  6.477143e+00    4.310544e+03
  6.529649e+00    4.330010e+03
  6.582155e+00    4.429165e+03
  6.634661e+00    4.581496e+03
  6.687167e+00    4.828284e+03
  6.739673e+00    4.951046e+03
  6.792179e+00    4.646633e+03
  6.844685e+00    4.298056e+03
  6.897191e+00    4.159493e+03
  6.949697e+00    4.205924e+03
  7.002203e+00    4.149910e+03
  7.054709e+00    4.115081e+03
  7.107215e+00    4.054744e+03
  7.159721e+00    3.954548e+03
  7.212227e+00    3.882484e+03
  7.264733e+00    3.893342e+03
  7.317239e+00    4.009672e+03
  7.369745e+00    4.183620e+03
  7.422251e+00    4.245776e+03
  7.474757e+00    4.192757e+03
  7.527263e+00    4.303954e+03
  7.579769e+00    4.602045e+03
  7.632275e+00    4.645765e+03
  7.684781e+00    4.463289e+03
  7.737287e+00    4.455557e+03
  7.789793e+00    4.386692e+03
  7.842299e+00    4.181281e+03
  7.894805e+00    4.099227e+03
  7.947311e+00    4.085716e+03
  7.999817e+00    4.177428e+03
  8.052323e+00    4.146881e+03
  8.104829e+00    3.953518e+03
  8.157335e+00    3.772736e+03
  8.209841e+00    3.676710e+03
  8.262347e+00    3.624992e+03
  8.314853e+00    3.574534e+03
  8.367359e+00    3.535540e+03
  8.419865e+00    3.515489e+03
  8.472371e+00    3.523511e+03
  8.524877e+00    3.528879e+03
  8.577383e+00    3.551453e+03
  8.629889e+00    3.538004e+03
  8.682395e+00    3.499834e+03
  8.734901e+00    3.524663e+03
  8.787407e+00    3.547541e+03
  8.839913e+00    3.493716e+03
  8.892419e+00    3.449704e+03
  8.944925e+00    3.444997e+03
  8.997431e+00    3.444936e+03
  9.049937e+00    3.432141e+03
  9.102443e+00    3.454277e+03
  9.154949e+00    3.469576e+03
  9.207455e+00    3.393164e+03
  9.259961e+00    3.298688e+03
  9.312467e+00    3.241270e+03
  9.364973e+00    3.190577e+03
  9.417480e+00    3.154294e+03
  9.469986e+00    3.174388e+03
  9.522492e+00    3.207698e+03
  9.574998e+00    3.241395e+03
  9.627504e+00    3.274846e+03
  9.680010e+00    3.272058e+03
  9.732516e+00    3.242079e+03
  9.785022e+00    3.230614e+03
  9.837528e+00    3.212808e+03
  9.890034e+00    3.160388e+03
  9.942540e+00    3.121413e+03
  9.995046e+00    3.124767e+03
  1.004755e+01    3.138784e+03
  1.010006e+01    3.138686e+03
  1.015256e+01    3.126422e+03
  1.020507e+01    3.048790e+03
  1.025758e+01    2.968297e+03
  1.031008e+01    2.934989e+03
  1.036259e+01    2.940748e+03
  1.041509e+01    2.924691e+03
  1.046760e+01    2.921184e+03
  1.052011e+01    2.933431e+03
  1.057261e+01    2.937624e+03
  1.062512e+01    2.929289e+03
  1.067762e+01    2.901693e+03
  1.073013e+01    2.882085e+03
  1.078264e+01    2.869150e+03
  1.083514e+01    2.845918e+03
  1.088765e+01    2.850935e+03
  1.094015e+01    2.877605e+03
  1.099266e+01    2.911767e+03
  1.104517e+01    2.920500e+03
  1.109767e+01    2.893948e+03
  1.115018e+01    2.838394e+03
  1.120268e+01    2.807057e+03
  1.125519e+01    2.783517e+03
  1.130770e+01    2.779449e+03
  1.136020e+01    2.785805e+03
  1.141271e+01    2.809308e+03
  1.146521e+01    2.830281e+03
  1.151772e+01    2.850104e+03
  1.157023e+01    2.861230e+03
  1.162273e+01    2.859427e+03
  1.167524e+01    2.811793e+03
  1.172774e+01    2.805129e+03
  1.178025e+01    2.781475e+03
  1.183276e+01    2.783958e+03
  1.188526e+01    2.774193e+03
  1.193777e+01    2.747554e+03
  1.199027e+01    2.704020e+03
  1.204278e+01    2.670503e+03
  1.209529e+01    2.663951e+03
  1.214779e+01    2.670537e+03
  1.220030e+01    2.687105e+03
  1.225280e+01    2.700751e+03
  1.230531e+01    2.697539e+03
  1.235782e+01    2.671610e+03
  1.241032e+01    2.647134e+03
  1.246283e+01    2.634749e+03
  1.251533e+01    2.623664e+03
  1.256784e+01    2.630401e+03
  1.262035e+01    2.627168e+03
  1.267285e+01    2.618961e+03
  1.272536e+01    2.604483e+03
  1.277786e+01    2.588100e+03
  1.283037e+01    2.572841e+03
  1.288288e+01    2.565239e+03
  1.293538e+01    2.553709e+03
  1.298789e+01    2.552072e+03
  1.304039e+01    2.554374e+03
  1.309290e+01    2.556396e+03
  1.314541e+01    2.556800e+03
  1.319791e+01    2.542400e+03
  1.325042e+01    2.524580e+03
  1.330292e+01    2.527239e+03
  1.335543e+01    2.537976e+03
  1.340794e+01    2.547881e+03
  1.346044e+01    2.557331e+03
  1.351295e+01    2.520644e+03
  1.356545e+01    2.495678e+03
  1.361796e+01    2.479796e+03
  1.367047e+01    2.478445e+03
  1.372297e+01    2.478760e+03
  1.377548e+01    2.469901e+03
  1.382798e+01    2.457069e+03
  1.388049e+01    2.441564e+03
  1.393300e+01    2.425703e+03
  1.398550e+01    2.420345e+03
  1.403801e+01    2.418507e+03
  1.409051e+01    2.411948e+03
  1.414302e+01    2.404927e+03
  1.419553e+01    2.394781e+03
  1.424803e+01    2.381610e+03
  1.430054e+01    2.369860e+03
  1.435304e+01    2.367139e+03
  1.440555e+01    2.360616e+03
  1.445806e+01    2.358818e+03
  1.451056e+01    2.349309e+03
  1.456307e+01    2.339510e+03
  1.461557e+01    2.332949e+03
  1.466808e+01    2.326533e+03
  1.472059e+01    2.325450e+03
  1.477309e+01    2.327262e+03
  1.482560e+01    2.320020e+03
  1.487810e+01    2.306406e+03
  1.493061e+01    2.296168e+03
  1.498312e+01    2.292213e+03
  1.503562e+01    2.289902e+03
  1.508813e+01    2.291468e+03
  1.514063e+01    2.292725e+03
  1.519314e+01    2.306476e+03
  1.524565e+01    2.333015e+03
  1.529815e+01    2.313996e+03
  1.535066e+01    2.307875e+03
  1.540316e+01    2.303219e+03
  1.545567e+01    2.289811e+03
  1.550818e+01    2.289407e+03
  1.556068e+01    2.282537e+03
  1.561319e+01    2.274237e+03
  1.566569e+01    2.272376e+03
  1.571820e+01    2.274538e+03
  1.577071e+01    2.272933e+03
  1.582321e+01    2.265417e+03
  1.587572e+01    2.260955e+03
  1.592822e+01    2.252637e+03
  1.598073e+01    2.245170e+03
  1.603324e+01    2.228000e+03
  1.608574e+01    2.210795e+03
  1.613825e+01    2.199045e+03
  1.619075e+01    2.201837e+03
  1.624326e+01    2.216658e+03
  1.629577e+01    2.211536e+03
  1.634827e+01    2.206775e+03
  1.640078e+01    2.203090e+03
  1.645328e+01    2.200262e+03
  1.650579e+01    2.200589e+03
  1.655830e+01    2.201571e+03
  1.661080e+01    2.196773e+03
  1.666331e+01    2.192403e+03
  1.671581e+01    2.186917e+03
  1.676832e+01    2.183383e+03
  1.682083e+01    2.179789e+03
  1.687333e+01    2.177113e+03
  1.692584e+01    2.177628e+03
  1.697834e+01    2.173743e+03
  1.703085e+01    2.167454e+03
  1.708336e+01    2.168652e+03
  1.713586e+01    2.164138e+03
  1.718837e+01    2.158406e+03
  1.724087e+01    2.150728e+03
  1.729338e+01    2.143826e+03
  1.734589e+01    2.138119e+03
  1.739839e+01    2.133458e+03
  1.745090e+01    2.131230e+03
  1.750340e+01    2.130324e+03
  1.755591e+01    2.122744e+03
  1.760842e+01    2.122829e+03
  1.766092e+01    2.117877e+03
  1.771343e+01    2.116901e+03
  1.776593e+01    2.109508e+03
  1.781844e+01    2.105216e+03
  1.787095e+01    2.100084e+03
  1.792345e+01    2.094578e+03
  1.797596e+01    2.090335e+03
  1.802846e+01    2.087701e+03
  1.808097e+01    2.079598e+03
  1.813348e+01    2.073512e+03
  1.818598e+01    2.067038e+03
  1.823849e+01    2.069362e+03
  1.829099e+01    2.059409e+03
  1.834350e+01    2.054002e+03
  1.839601e+01    2.048908e+03
  1.844851e+01    2.043038e+03
  1.850102e+01    2.040151e+03
  1.855352e+01    2.033323e+03
  1.860603e+01    2.030124e+03
  1.865854e+01    2.040384e+03
  1.871104e+01    2.046010e+03
  1.876355e+01    2.035412e+03
  1.881605e+01    2.030800e+03
  1.886856e+01    2.028018e+03
  1.892107e+01    2.022351e+03
  1.897357e+01    2.019298e+03
  1.902608e+01    2.011727e+03
  1.907858e+01    2.007785e+03
  1.913109e+01    2.001470e+03
  1.918360e+01    1.995786e+03
  1.923610e+01    1.990371e+03
  1.928861e+01    1.983469e+03
  1.934111e+01    1.979778e+03
  1.939362e+01    1.970213e+03
  1.944613e+01    1.966710e+03
  1.949863e+01    1.961443e+03
  1.955114e+01    1.953314e+03
  1.960364e+01    1.948746e+03
  1.965615e+01    1.941846e+03
  1.970866e+01    1.940835e+03
  1.976116e+01    1.933349e+03
  1.981367e+01    1.930796e+03
  1.986617e+01    1.923276e+03
  1.991868e+01    1.917195e+03
  1.997119e+01    1.913690e+03
  2.002369e+01    1.908616e+03
  2.007620e+01    1.899285e+03
  2.012870e+01    1.896535e+03
  2.018121e+01    1.888713e+03
  2.023372e+01    1.883194e+03
  2.028622e+01    1.875141e+03
  2.033873e+01    1.866865e+03
  2.039123e+01    1.862598e+03
  2.044374e+01    1.856775e+03
  2.049625e+01    1.852596e+03
  2.054875e+01    1.844668e+03
  2.060126e+01    1.841953e+03
  2.065376e+01    1.835745e+03
  2.070627e+01    1.829658e+03
  2.075878e+01    1.824464e+03
  2.081128e+01    1.832592e+03
  2.086379e+01    1.827461e+03
  2.091629e+01    1.812803e+03
  2.096880e+01    1.800800e+03
  2.102131e+01    1.792114e+03
  2.107381e+01    1.783547e+03
  2.112632e+01    1.772062e+03
  2.117882e+01    1.765206e+03
  2.123133e+01    1.752467e+03
  2.128384e+01    1.743428e+03
  2.133634e+01    1.735785e+03
  2.138885e+01    1.723887e+03
  2.144135e+01    1.716347e+03
  2.149386e+01    1.708537e+03
  2.154637e+01    1.700315e+03
  2.159887e+01    1.693881e+03
  2.165138e+01    1.682535e+03
  2.170388e+01    1.677715e+03
  2.175639e+01    1.672758e+03
  2.180890e+01    1.665448e+03
  2.186140e+01    1.655987e+03
  2.191391e+01    1.648407e+03
  2.196641e+01    1.640006e+03
  2.201892e+01    1.631491e+03
  2.207143e+01    1.623180e+03
  2.212393e+01    1.613296e+03
  2.217644e+01    1.604447e+03
  2.222894e+01    1.595803e+03
  2.228145e+01    1.587511e+03
  2.233396e+01    1.578782e+03
  2.238646e+01    1.570861e+03
  2.243897e+01    1.562148e+03
  2.249147e+01    1.553941e+03
  2.254398e+01    1.548596e+03
  2.259649e+01    1.553030e+03
  2.264899e+01    1.549591e+03
  2.270150e+01    1.550201e+03
  2.275400e+01    1.551292e+03
  2.280651e+01    1.550031e+03
  2.285902e+01    1.548730e+03
  2.291152e+01    1.550707e+03
  2.296403e+01    1.548160e+03
  2.301653e+01    1.548380e+03
  2.306904e+01    1.546799e+03
  2.312155e+01    1.542774e+03
  2.317405e+01    1.540404e+03
  2.322656e+01    1.535984e+03
  2.327906e+01    1.533333e+03
  2.333157e+01    1.532313e+03
  2.338408e+01    1.531716e+03
  2.343658e+01    1.531309e+03
  2.348909e+01    1.526365e+03
  2.354159e+01    1.523101e+03
  2.359410e+01    1.517126e+03
  2.364661e+01    1.517673e+03
  2.369911e+01    1.510349e+03
  2.375162e+01    1.505993e+03
  2.380412e+01    1.496215e+03
  2.385663e+01    1.489914e+03
  2.390914e+01    1.486829e+03
  2.396164e+01    1.481256e+03
  2.401415e+01    1.476263e+03
  2.406665e+01    1.471338e+03
  2.411916e+01    1.466224e+03
  2.417167e+01    1.457290e+03
  2.422417e+01    1.451596e+03
  2.427668e+01    1.443545e+03
  2.432918e+01    1.438560e+03
  2.438169e+01    1.430643e+03
  2.443420e+01    1.428599e+03
  2.448670e+01    1.423774e+03
  2.453921e+01    1.418936e+03
  2.459171e+01    1.414280e+03
  2.464422e+01    1.412097e+03
  2.469673e+01    1.401056e+03
  2.474923e+01    1.394269e+03
  2.480174e+01    1.386091e+03
  2.485425e+01    1.374156e+03
  2.490675e+01    1.369477e+03
  2.495926e+01    1.362126e+03
  2.501176e+01    1.352113e+03
  2.506427e+01    1.344433e+03
  2.511678e+01    1.340695e+03
  2.516928e+01    1.331289e+03
  2.522179e+01    1.325189e+03
  2.527429e+01    1.315657e+03
  2.532680e+01    1.313220e+03
  2.537931e+01    1.298035e+03
  2.543181e+01    1.292459e+03
  2.548432e+01    1.276413e+03
  2.553682e+01    1.265640e+03
  2.558933e+01    1.264962e+03
  2.564184e+01    1.253667e+03
  2.569434e+01    1.237160e+03
  2.574685e+01    1.232093e+03
  2.579935e+01    1.216378e+03
  2.585186e+01    1.207019e+03
  2.590437e+01    1.201901e+03
  2.595687e+01    1.195581e+03
  2.600938e+01    1.193043e+03
  2.606188e+01    1.187441e+03
  2.611439e+01    1.187493e+03
  2.616690e+01    1.176457e+03
  2.621940e+01    1.167728e+03
  2.627191e+01    1.159648e+03
  2.632441e+01    1.154104e+03
  2.637692e+01    1.154616e+03
  2.642943e+01    1.134349e+03
  2.648193e+01    1.135813e+03
