# == pyFAI calibration ==
# Distance Sample to Detector: 0.2945755399789714 m
# PONI: 2.880e-01, 2.450e-01 m
# Rotations: -0.007291 -0.010887 -0.000000 rad
# 
# == Fit2d calibration ==
# Distance Sample-beamCenter: 294.601 mm
# Center: x=1437.174, y=1655.617 pix
# Tilt: 0.751 deg  TiltPlanRot: -56.193 deg
# 
# Detector Pilatus CdTe 2M	 PixelSize= 1.720e-04, 1.720e-04 m
#    Detector has a mask: True 
#    Detector has a dark current: False 
#    detector has a flat field: False 
# 
# Wavelength: 2.0732883349524408e-11 m
# Mask applied: from detector
# Dark current applied: False
# Flat field applied: False
# Polarization factor: 0.9000000000000002
# Normalization factor: 1.0
# --> /gpfs/current/raw/FMue_2_third_run/FMue_2_third_20231024_085044_00084.dat
#        q_A^-1             I 
  2.814346e-01    8.110575e+04
  3.339406e-01    4.630230e+04
  3.864466e-01    3.455619e+04
  4.389526e-01    2.865588e+04
  4.914586e-01    2.472242e+04
  5.439646e-01    2.237181e+04
  5.964706e-01    2.074700e+04
  6.489766e-01    1.931578e+04
  7.014826e-01    1.821212e+04
  7.539886e-01    1.724381e+04
  8.064947e-01    1.646159e+04
  8.590007e-01    1.579270e+04
  9.115067e-01    1.528691e+04
  9.640127e-01    1.486173e+04
  1.016519e+00    1.458638e+04
  1.069025e+00    1.448650e+04
  1.121531e+00    1.459475e+04
  1.174037e+00    1.484184e+04
  1.226543e+00    1.533366e+04
  1.279049e+00    1.622288e+04
  1.331555e+00    1.733829e+04
  1.384061e+00    1.777579e+04
  1.436567e+00    1.775377e+04
  1.489073e+00    1.760192e+04
  1.541579e+00    1.715428e+04
  1.594085e+00    1.642028e+04
  1.646591e+00    1.561943e+04
  1.699097e+00    1.460343e+04
  1.751603e+00    1.365027e+04
  1.804109e+00    1.279814e+04
  1.856615e+00    1.209406e+04
  1.909121e+00    1.156639e+04
  1.961627e+00    1.116981e+04
  2.014133e+00    1.092113e+04
  2.066639e+00    1.096881e+04
  2.119145e+00    1.182253e+04
  2.171651e+00    1.323432e+04
  2.224157e+00    1.277885e+04
  2.276663e+00    1.120904e+04
  2.329169e+00    1.042946e+04
  2.381675e+00    1.030907e+04
  2.434181e+00    1.093519e+04
  2.486687e+00    1.358521e+04
  2.539193e+00    1.921299e+04
  2.591699e+00    1.955867e+04
  2.644205e+00    1.411226e+04
  2.696711e+00    1.100396e+04
  2.749217e+00    9.499469e+03
  2.801723e+00    8.329073e+03
  2.854229e+00    7.635324e+03
  2.906735e+00    7.357963e+03
  2.959241e+00    7.343665e+03
  3.011747e+00    7.909521e+03
  3.064253e+00    9.700824e+03
  3.116759e+00    1.152293e+04
  3.169265e+00    1.124791e+04
  3.221771e+00    9.379344e+03
  3.274277e+00    7.421805e+03
  3.326783e+00    6.685683e+03
  3.379289e+00    6.515101e+03
  3.431795e+00    6.417864e+03
  3.484301e+00    6.379079e+03
  3.536807e+00    6.358502e+03
  3.589313e+00    6.337913e+03
  3.641819e+00    6.448462e+03
  3.694325e+00    6.668521e+03
  3.746831e+00    7.181723e+03
  3.799337e+00    7.576885e+03
  3.851843e+00    7.412149e+03
  3.904349e+00    7.589946e+03
  3.956855e+00    8.817164e+03
  4.009361e+00    1.044026e+04
  4.061867e+00    1.013871e+04
  4.114373e+00    8.734671e+03
  4.166879e+00    7.935433e+03
  4.219385e+00    7.674665e+03
  4.271891e+00    8.067479e+03
  4.324397e+00    1.012692e+04
  4.376903e+00    1.357309e+04
  4.429409e+00    1.434869e+04
  4.481915e+00    1.308467e+04
  4.534421e+00    1.020609e+04
  4.586927e+00    7.838281e+03
  4.639433e+00    6.851930e+03
  4.691939e+00    6.505309e+03
  4.744445e+00    6.360306e+03
  4.796951e+00    6.339064e+03
  4.849457e+00    6.460722e+03
  4.901963e+00    6.562932e+03
  4.954469e+00    6.599601e+03
  5.006975e+00    6.851284e+03
  5.059481e+00    7.353567e+03
  5.111987e+00    7.388013e+03
  5.164493e+00    6.777304e+03
  5.216999e+00    6.122208e+03
  5.269505e+00    5.759340e+03
  5.322011e+00    5.658593e+03
  5.374517e+00    5.623396e+03
  5.427023e+00    5.476812e+03
  5.479529e+00    5.381824e+03
  5.532035e+00    5.100141e+03
  5.584541e+00    4.793811e+03
  5.637047e+00    4.663128e+03
  5.689553e+00    4.667871e+03
  5.742059e+00    4.828755e+03
  5.794565e+00    5.004468e+03
  5.847071e+00    5.141493e+03
  5.899577e+00    5.510046e+03
  5.952083e+00    5.795379e+03
  6.004589e+00    5.442618e+03
  6.057095e+00    5.011246e+03
  6.109601e+00    4.892417e+03
  6.162107e+00    4.962066e+03
  6.214613e+00    4.986973e+03
  6.267119e+00    4.868288e+03
  6.319625e+00    4.724101e+03
  6.372131e+00    4.588667e+03
  6.424637e+00    4.448319e+03
  6.477143e+00    4.358603e+03
  6.529649e+00    4.397694e+03
  6.582155e+00    4.492110e+03
  6.634661e+00    4.656183e+03
  6.687167e+00    4.874814e+03
  6.739673e+00    4.868126e+03
  6.792179e+00    4.539407e+03
  6.844685e+00    4.278292e+03
  6.897191e+00    4.198198e+03
  6.949697e+00    4.235775e+03
  7.002203e+00    4.170548e+03
  7.054709e+00    4.137656e+03
  7.107215e+00    4.066048e+03
  7.159721e+00    3.984630e+03
  7.212227e+00    3.942129e+03
  7.264733e+00    3.973170e+03
  7.317239e+00    4.095107e+03
  7.369745e+00    4.226833e+03
  7.422251e+00    4.233138e+03
  7.474757e+00    4.207045e+03
  7.527263e+00    4.367455e+03
  7.579769e+00    4.598547e+03
  7.632275e+00    4.513716e+03
  7.684781e+00    4.389369e+03
  7.737287e+00    4.392550e+03
  7.789793e+00    4.278161e+03
  7.842299e+00    4.118173e+03
  7.894805e+00    4.101080e+03
  7.947311e+00    4.104343e+03
  7.999817e+00    4.160969e+03
  8.052323e+00    4.074118e+03
  8.104829e+00    3.894664e+03
  8.157335e+00    3.767090e+03
  8.209841e+00    3.699371e+03
  8.262347e+00    3.657891e+03
  8.314853e+00    3.612656e+03
  8.367359e+00    3.574684e+03
  8.419865e+00    3.562790e+03
  8.472371e+00    3.567555e+03
  8.524877e+00    3.568388e+03
  8.577383e+00    3.580217e+03
  8.629889e+00    3.554169e+03
  8.682395e+00    3.533527e+03
  8.734901e+00    3.557169e+03
  8.787407e+00    3.549324e+03
  8.839913e+00    3.493848e+03
  8.892419e+00    3.463808e+03
  8.944925e+00    3.460056e+03
  8.997431e+00    3.450961e+03
  9.049937e+00    3.441454e+03
  9.102443e+00    3.467135e+03
  9.154949e+00    3.452428e+03
  9.207455e+00    3.370155e+03
  9.259961e+00    3.297148e+03
  9.312467e+00    3.254786e+03
  9.364973e+00    3.209942e+03
  9.417480e+00    3.185510e+03
  9.469986e+00    3.205740e+03
  9.522492e+00    3.227967e+03
  9.574998e+00    3.249692e+03
  9.627504e+00    3.264181e+03
  9.680010e+00    3.247113e+03
  9.732516e+00    3.225320e+03
  9.785022e+00    3.216293e+03
  9.837528e+00    3.181920e+03
  9.890034e+00    3.141768e+03
  9.942540e+00    3.120486e+03
  9.995046e+00    3.120254e+03
  1.004755e+01    3.134779e+03
  1.010006e+01    3.118875e+03
  1.015256e+01    3.080451e+03
  1.020507e+01    3.014047e+03
  1.025758e+01    2.959595e+03
  1.031008e+01    2.940089e+03
  1.036259e+01    2.953624e+03
  1.041509e+01    2.945282e+03
  1.046760e+01    2.940722e+03
  1.052011e+01    2.946835e+03
  1.057261e+01    2.943529e+03
  1.062512e+01    2.928909e+03
  1.067762e+01    2.910256e+03
  1.073013e+01    2.892939e+03
  1.078264e+01    2.881080e+03
  1.083514e+01    2.865896e+03
  1.088765e+01    2.874329e+03
  1.094015e+01    2.894476e+03
  1.099266e+01    2.915901e+03
  1.104517e+01    2.901437e+03
  1.109767e+01    2.873797e+03
  1.115018e+01    2.835077e+03
  1.120268e+01    2.815268e+03
  1.125519e+01    2.797989e+03
  1.130770e+01    2.796850e+03
  1.136020e+01    2.801436e+03
  1.141271e+01    2.819526e+03
  1.146521e+01    2.829242e+03
  1.151772e+01    2.843011e+03
  1.157023e+01    2.843372e+03
  1.162273e+01    2.825467e+03
  1.167524e+01    2.788460e+03
  1.172774e+01    2.798987e+03
  1.178025e+01    2.781270e+03
  1.183276e+01    2.777707e+03
  1.188526e+01    2.761677e+03
  1.193777e+01    2.736095e+03
  1.199027e+01    2.704054e+03
  1.204278e+01    2.684901e+03
  1.209529e+01    2.683657e+03
  1.214779e+01    2.690755e+03
  1.220030e+01    2.699615e+03
  1.225280e+01    2.699314e+03
  1.230531e+01    2.688819e+03
  1.235782e+01    2.665426e+03
  1.241032e+01    2.652905e+03
  1.246283e+01    2.645949e+03
  1.251533e+01    2.633448e+03
  1.256784e+01    2.640077e+03
  1.262035e+01    2.633622e+03
  1.267285e+01    2.622763e+03
  1.272536e+01    2.606123e+03
  1.277786e+01    2.595861e+03
  1.283037e+01    2.581314e+03
  1.288288e+01    2.578264e+03
  1.293538e+01    2.565889e+03
  1.298789e+01    2.562541e+03
  1.304039e+01    2.563615e+03
  1.309290e+01    2.560357e+03
  1.314541e+01    2.556130e+03
  1.319791e+01    2.541574e+03
  1.325042e+01    2.522512e+03
  1.330292e+01    2.520973e+03
  1.335543e+01    2.525698e+03
  1.340794e+01    2.522742e+03
  1.346044e+01    2.530774e+03
  1.351295e+01    2.504648e+03
  1.356545e+01    2.490622e+03
  1.361796e+01    2.479398e+03
  1.367047e+01    2.474697e+03
  1.372297e+01    2.470350e+03
  1.377548e+01    2.459379e+03
  1.382798e+01    2.447445e+03
  1.388049e+01    2.437363e+03
  1.393300e+01    2.424782e+03
  1.398550e+01    2.423165e+03
  1.403801e+01    2.420950e+03
  1.409051e+01    2.409743e+03
  1.414302e+01    2.397824e+03
  1.419553e+01    2.393507e+03
  1.424803e+01    2.381871e+03
  1.430054e+01    2.372303e+03
  1.435304e+01    2.367740e+03
  1.440555e+01    2.360154e+03
  1.445806e+01    2.356015e+03
  1.451056e+01    2.346128e+03
  1.456307e+01    2.336330e+03
  1.461557e+01    2.333023e+03
  1.466808e+01    2.327697e+03
  1.472059e+01    2.326422e+03
  1.477309e+01    2.325353e+03
  1.482560e+01    2.318037e+03
  1.487810e+01    2.307407e+03
  1.493061e+01    2.302028e+03
  1.498312e+01    2.296931e+03
  1.503562e+01    2.294278e+03
  1.508813e+01    2.294222e+03
  1.514063e+01    2.294448e+03
  1.519314e+01    2.307830e+03
  1.524565e+01    2.335234e+03
  1.529815e+01    2.312317e+03
  1.535066e+01    2.302214e+03
  1.540316e+01    2.295247e+03
  1.545567e+01    2.280309e+03
  1.550818e+01    2.284622e+03
  1.556068e+01    2.279255e+03
  1.561319e+01    2.274253e+03
  1.566569e+01    2.272004e+03
  1.571820e+01    2.269548e+03
  1.577071e+01    2.266609e+03
  1.582321e+01    2.259652e+03
  1.587572e+01    2.253270e+03
  1.592822e+01    2.247891e+03
  1.598073e+01    2.240636e+03
  1.603324e+01    2.225159e+03
  1.608574e+01    2.210137e+03
  1.613825e+01    2.199135e+03
  1.619075e+01    2.202371e+03
  1.624326e+01    2.218251e+03
  1.629577e+01    2.212525e+03
  1.634827e+01    2.205184e+03
  1.640078e+01    2.203378e+03
  1.645328e+01    2.200211e+03
  1.650579e+01    2.199817e+03
  1.655830e+01    2.195942e+03
  1.661080e+01    2.189811e+03
  1.666331e+01    2.186001e+03
  1.671581e+01    2.179987e+03
  1.676832e+01    2.177824e+03
  1.682083e+01    2.173760e+03
  1.687333e+01    2.169610e+03
  1.692584e+01    2.169040e+03
  1.697834e+01    2.164125e+03
  1.703085e+01    2.158111e+03
  1.708336e+01    2.159523e+03
  1.713586e+01    2.161642e+03
  1.718837e+01    2.142629e+03
  1.724087e+01    2.136493e+03
  1.729338e+01    2.132543e+03
  1.734589e+01    2.128706e+03
  1.739839e+01    2.122938e+03
  1.745090e+01    2.119947e+03
  1.750340e+01    2.119766e+03
  1.755591e+01    2.114281e+03
  1.760842e+01    2.110873e+03
  1.766092e+01    2.104446e+03
  1.771343e+01    2.101594e+03
  1.776593e+01    2.094272e+03
  1.781844e+01    2.087341e+03
  1.787095e+01    2.081831e+03
  1.792345e+01    2.076282e+03
  1.797596e+01    2.070297e+03
  1.802846e+01    2.066495e+03
  1.808097e+01    2.060433e+03
  1.813348e+01    2.053960e+03
  1.818598e+01    2.048792e+03
  1.823849e+01    2.053405e+03
  1.829099e+01    2.040430e+03
  1.834350e+01    2.035331e+03
  1.839601e+01    2.029377e+03
  1.844851e+01    2.023855e+03
  1.850102e+01    2.023249e+03
  1.855352e+01    2.016449e+03
  1.860603e+01    2.011564e+03
  1.865854e+01    2.022029e+03
  1.871104e+01    2.025243e+03
  1.876355e+01    2.013906e+03
  1.881605e+01    2.009065e+03
  1.886856e+01    2.006982e+03
  1.892107e+01    2.001051e+03
  1.897357e+01    1.994895e+03
  1.902608e+01    1.987831e+03
  1.907858e+01    1.981530e+03
  1.913109e+01    1.972851e+03
  1.918360e+01    1.968694e+03
  1.923610e+01    1.961342e+03
  1.928861e+01    1.953360e+03
  1.934111e+01    1.950067e+03
  1.939362e+01    1.939253e+03
  1.944613e+01    1.935276e+03
  1.949863e+01    1.930396e+03
  1.955114e+01    1.922014e+03
  1.960364e+01    1.917543e+03
  1.965615e+01    1.911305e+03
  1.970866e+01    1.908399e+03
  1.976116e+01    1.902069e+03
  1.981367e+01    1.896617e+03
  1.986617e+01    1.889465e+03
  1.991868e+01    1.883829e+03
  1.997119e+01    1.877827e+03
  2.002369e+01    1.873789e+03
  2.007620e+01    1.865633e+03
  2.012870e+01    1.860340e+03
  2.018121e+01    1.852913e+03
  2.023372e+01    1.847249e+03
  2.028622e+01    1.838691e+03
  2.033873e+01    1.831268e+03
  2.039123e+01    1.827101e+03
  2.044374e+01    1.821852e+03
  2.049625e+01    1.816574e+03
  2.054875e+01    1.809473e+03
  2.060126e+01    1.805807e+03
  2.065376e+01    1.801712e+03
  2.070627e+01    1.796617e+03
  2.075878e+01    1.792773e+03
  2.081128e+01    1.798749e+03
  2.086379e+01    1.791717e+03
  2.091629e+01    1.777050e+03
  2.096880e+01    1.764237e+03
  2.102131e+01    1.757071e+03
  2.107381e+01    1.747573e+03
  2.112632e+01    1.735473e+03
  2.117882e+01    1.727547e+03
  2.123133e+01    1.717926e+03
  2.128384e+01    1.709520e+03
  2.133634e+01    1.700608e+03
  2.138885e+01    1.688364e+03
  2.144135e+01    1.680859e+03
  2.149386e+01    1.672384e+03
  2.154637e+01    1.665858e+03
  2.159887e+01    1.657352e+03
  2.165138e+01    1.648872e+03
  2.170388e+01    1.642164e+03
  2.175639e+01    1.638234e+03
  2.180890e+01    1.629612e+03
  2.186140e+01    1.620712e+03
  2.191391e+01    1.613802e+03
  2.196641e+01    1.604938e+03
  2.201892e+01    1.594552e+03
  2.207143e+01    1.586498e+03
  2.212393e+01    1.577124e+03
  2.217644e+01    1.567943e+03
  2.222894e+01    1.560015e+03
  2.228145e+01    1.552447e+03
  2.233396e+01    1.543168e+03
  2.238646e+01    1.534192e+03
  2.243897e+01    1.525520e+03
  2.249147e+01    1.518036e+03
  2.254398e+01    1.511703e+03
  2.259649e+01    1.515856e+03
  2.264899e+01    1.513351e+03
  2.270150e+01    1.512660e+03
  2.275400e+01    1.513670e+03
  2.280651e+01    1.511664e+03
  2.285902e+01    1.511189e+03
  2.291152e+01    1.509349e+03
  2.296403e+01    1.509110e+03
  2.301653e+01    1.506166e+03
  2.306904e+01    1.505650e+03
  2.312155e+01    1.500866e+03
  2.317405e+01    1.496782e+03
  2.322656e+01    1.493419e+03
  2.327906e+01    1.488614e+03
  2.333157e+01    1.486239e+03
  2.338408e+01    1.488866e+03
  2.343658e+01    1.485777e+03
  2.348909e+01    1.479594e+03
  2.354159e+01    1.475437e+03
  2.359410e+01    1.473637e+03
  2.364661e+01    1.470073e+03
  2.369911e+01    1.465813e+03
  2.375162e+01    1.459394e+03
  2.380412e+01    1.450716e+03
  2.385663e+01    1.442531e+03
  2.390914e+01    1.435584e+03
  2.396164e+01    1.430727e+03
  2.401415e+01    1.425948e+03
  2.406665e+01    1.420204e+03
  2.411916e+01    1.414894e+03
  2.417167e+01    1.407206e+03
  2.422417e+01    1.401584e+03
  2.427668e+01    1.395002e+03
  2.432918e+01    1.387539e+03
  2.438169e+01    1.380379e+03
  2.443420e+01    1.378412e+03
  2.448670e+01    1.371940e+03
  2.453921e+01    1.366381e+03
  2.459171e+01    1.365766e+03
  2.464422e+01    1.363398e+03
  2.469673e+01    1.354101e+03
  2.474923e+01    1.346674e+03
  2.480174e+01    1.334675e+03
  2.485425e+01    1.328570e+03
  2.490675e+01    1.319516e+03
  2.495926e+01    1.313013e+03
  2.501176e+01    1.303067e+03
  2.506427e+01    1.299154e+03
  2.511678e+01    1.285633e+03
  2.516928e+01    1.283809e+03
  2.522179e+01    1.274751e+03
  2.527429e+01    1.266816e+03
  2.532680e+01    1.259274e+03
  2.537931e+01    1.251461e+03
  2.543181e+01    1.239609e+03
  2.548432e+01    1.225831e+03
  2.553682e+01    1.215228e+03
  2.558933e+01    1.214190e+03
  2.564184e+01    1.204849e+03
  2.569434e+01    1.190602e+03
  2.574685e+01    1.179372e+03
  2.579935e+01    1.168085e+03
  2.585186e+01    1.157702e+03
  2.590437e+01    1.152301e+03
  2.595687e+01    1.152434e+03
  2.600938e+01    1.143911e+03
  2.606188e+01    1.141617e+03
  2.611439e+01    1.143447e+03
  2.616690e+01    1.137747e+03
  2.621940e+01    1.129660e+03
  2.627191e+01    1.122832e+03
  2.632441e+01    1.120292e+03
  2.637692e+01    1.117475e+03
  2.642943e+01    1.106182e+03
  2.648193e+01    1.077340e+03
