# == pyFAI calibration ==
# Distance Sample to Detector: 0.2945755399789714 m
# PONI: 2.880e-01, 2.450e-01 m
# Rotations: -0.007291 -0.010887 -0.000000 rad
# 
# == Fit2d calibration ==
# Distance Sample-beamCenter: 294.601 mm
# Center: x=1437.174, y=1655.617 pix
# Tilt: 0.751 deg  TiltPlanRot: -56.193 deg
# 
# Detector Pilatus CdTe 2M	 PixelSize= 1.720e-04, 1.720e-04 m
#    Detector has a mask: True 
#    Detector has a dark current: False 
#    detector has a flat field: False 
# 
# Wavelength: 2.0732883349524408e-11 m
# Mask applied: from detector
# Dark current applied: False
# Flat field applied: False
# Polarization factor: 0.9000000000000002
# Normalization factor: 1.0
# --> /gpfs/current/raw/FMue_2_third_run/FMue_2_third_20231024_085044_00019.dat
#        q_A^-1             I 
  2.814346e-01    8.175799e+04
  3.339406e-01    4.657030e+04
  3.864466e-01    3.465738e+04
  4.389526e-01    2.863921e+04
  4.914586e-01    2.471112e+04
  5.439646e-01    2.238896e+04
  5.964706e-01    2.077127e+04
  6.489766e-01    1.937867e+04
  7.014826e-01    1.828547e+04
  7.539886e-01    1.732943e+04
  8.064947e-01    1.654573e+04
  8.590007e-01    1.588127e+04
  9.115067e-01    1.538111e+04
  9.640127e-01    1.494605e+04
  1.016519e+00    1.467101e+04
  1.069025e+00    1.455775e+04
  1.121531e+00    1.465473e+04
  1.174037e+00    1.490300e+04
  1.226543e+00    1.536891e+04
  1.279049e+00    1.626667e+04
  1.331555e+00    1.742920e+04
  1.384061e+00    1.789618e+04
  1.436567e+00    1.785619e+04
  1.489073e+00    1.766968e+04
  1.541579e+00    1.720189e+04
  1.594085e+00    1.647839e+04
  1.646591e+00    1.565388e+04
  1.699097e+00    1.465845e+04
  1.751603e+00    1.370399e+04
  1.804109e+00    1.285318e+04
  1.856615e+00    1.214940e+04
  1.909121e+00    1.161875e+04
  1.961627e+00    1.119850e+04
  2.014133e+00    1.093968e+04
  2.066639e+00    1.096255e+04
  2.119145e+00    1.172099e+04
  2.171651e+00    1.318314e+04
  2.224157e+00    1.300995e+04
  2.276663e+00    1.142639e+04
  2.329169e+00    1.052983e+04
  2.381675e+00    1.033381e+04
  2.434181e+00    1.084432e+04
  2.486687e+00    1.314579e+04
  2.539193e+00    1.868990e+04
  2.591699e+00    2.028710e+04
  2.644205e+00    1.494771e+04
  2.696711e+00    1.132770e+04
  2.749217e+00    9.728437e+03
  2.801723e+00    8.470555e+03
  2.854229e+00    7.659628e+03
  2.906735e+00    7.329334e+03
  2.959241e+00    7.265913e+03
  3.011747e+00    7.701814e+03
  3.064253e+00    9.368895e+03
  3.116759e+00    1.156766e+04
  3.169265e+00    1.169165e+04
  3.221771e+00    9.890630e+03
  3.274277e+00    7.640504e+03
  3.326783e+00    6.682081e+03
  3.379289e+00    6.451683e+03
  3.431795e+00    6.343239e+03
  3.484301e+00    6.298229e+03
  3.536807e+00    6.269036e+03
  3.589313e+00    6.244611e+03
  3.641819e+00    6.343081e+03
  3.694325e+00    6.528901e+03
  3.746831e+00    7.013449e+03
  3.799337e+00    7.502355e+03
  3.851843e+00    7.409432e+03
  3.904349e+00    7.457598e+03
  3.956855e+00    8.508275e+03
  4.009361e+00    1.033582e+04
  4.061867e+00    1.054983e+04
  4.114373e+00    9.092899e+03
  4.166879e+00    8.056067e+03
  4.219385e+00    7.643804e+03
  4.271891e+00    7.851141e+03
  4.324397e+00    9.493938e+03
  4.376903e+00    1.322347e+04
  4.429409e+00    1.496143e+04
  4.481915e+00    1.407557e+04
  4.534421e+00    1.120211e+04
  4.586927e+00    8.216413e+03
  4.639433e+00    6.871192e+03
  4.691939e+00    6.417734e+03
  4.744445e+00    6.232312e+03
  4.796951e+00    6.189283e+03
  4.849457e+00    6.305727e+03
  4.901963e+00    6.447631e+03
  4.954469e+00    6.504918e+03
  5.006975e+00    6.703353e+03
  5.059481e+00    7.232549e+03
  5.111987e+00    7.489738e+03
  5.164493e+00    6.970421e+03
  5.216999e+00    6.231585e+03
  5.269505e+00    5.756814e+03
  5.322011e+00    5.579703e+03
  5.374517e+00    5.579642e+03
  5.427023e+00    5.459288e+03
  5.479529e+00    5.381738e+03
  5.532035e+00    5.151453e+03
  5.584541e+00    4.780087e+03
  5.637047e+00    4.602699e+03
  5.689553e+00    4.572959e+03
  5.742059e+00    4.726190e+03
  5.794565e+00    4.954438e+03
  5.847071e+00    5.114679e+03
  5.899577e+00    5.428686e+03
  5.952083e+00    5.903550e+03
  6.004589e+00    5.705732e+03
  6.057095e+00    5.154587e+03
  6.109601e+00    4.912547e+03
  6.162107e+00    4.940169e+03
  6.214613e+00    5.034308e+03
  6.267119e+00    4.948972e+03
  6.319625e+00    4.785214e+03
  6.372131e+00    4.636933e+03
  6.424637e+00    4.464800e+03
  6.477143e+00    4.325677e+03
  6.529649e+00    4.336116e+03
  6.582155e+00    4.440741e+03
  6.634661e+00    4.593396e+03
  6.687167e+00    4.846832e+03
  6.739673e+00    4.995544e+03
  6.792179e+00    4.700584e+03
  6.844685e+00    4.330245e+03
  6.897191e+00    4.172751e+03
  6.949697e+00    4.223076e+03
  7.002203e+00    4.161301e+03
  7.054709e+00    4.127191e+03
  7.107215e+00    4.070413e+03
  7.159721e+00    3.971297e+03
  7.212227e+00    3.888760e+03
  7.264733e+00    3.893057e+03
  7.317239e+00    4.010757e+03
  7.369745e+00    4.191101e+03
  7.422251e+00    4.271138e+03
  7.474757e+00    4.215988e+03
  7.527263e+00    4.310423e+03
  7.579769e+00    4.625809e+03
  7.632275e+00    4.707454e+03
  7.684781e+00    4.509917e+03
  7.737287e+00    4.493618e+03
  7.789793e+00    4.441129e+03
  7.842299e+00    4.225665e+03
  7.894805e+00    4.129262e+03
  7.947311e+00    4.106482e+03
  7.999817e+00    4.205587e+03
  8.052323e+00    4.193951e+03
  8.104829e+00    3.994571e+03
  8.157335e+00    3.799993e+03
  8.209841e+00    3.690547e+03
  8.262347e+00    3.634832e+03
  8.314853e+00    3.583594e+03
  8.367359e+00    3.541223e+03
  8.419865e+00    3.521848e+03
  8.472371e+00    3.531426e+03
  8.524877e+00    3.537352e+03
  8.577383e+00    3.564938e+03
  8.629889e+00    3.552813e+03
  8.682395e+00    3.511240e+03
  8.734901e+00    3.538288e+03
  8.787407e+00    3.562978e+03
  8.839913e+00    3.511603e+03
  8.892419e+00    3.462793e+03
  8.944925e+00    3.458651e+03
  8.997431e+00    3.460542e+03
  9.049937e+00    3.447902e+03
  9.102443e+00    3.471842e+03
  9.154949e+00    3.493049e+03
  9.207455e+00    3.426677e+03
  9.259961e+00    3.330481e+03
  9.312467e+00    3.255147e+03
  9.364973e+00    3.202409e+03
  9.417480e+00    3.162700e+03
  9.469986e+00    3.181249e+03
  9.522492e+00    3.220566e+03
  9.574998e+00    3.255700e+03
  9.627504e+00    3.293844e+03
  9.680010e+00    3.297305e+03
  9.732516e+00    3.266411e+03
  9.785022e+00    3.254485e+03
  9.837528e+00    3.237525e+03
  9.890034e+00    3.185121e+03
  9.942540e+00    3.143742e+03
  9.995046e+00    3.142705e+03
  1.004755e+01    3.161266e+03
  1.010006e+01    3.163203e+03
  1.015256e+01    3.154719e+03
  1.020507e+01    3.080778e+03
  1.025758e+01    2.991587e+03
  1.031008e+01    2.950287e+03
  1.036259e+01    2.952357e+03
  1.041509e+01    2.937261e+03
  1.046760e+01    2.934076e+03
  1.052011e+01    2.947629e+03
  1.057261e+01    2.956285e+03
  1.062512e+01    2.948579e+03
  1.067762e+01    2.919491e+03
  1.073013e+01    2.893441e+03
  1.078264e+01    2.880315e+03
  1.083514e+01    2.857951e+03
  1.088765e+01    2.861815e+03
  1.094015e+01    2.890245e+03
  1.099266e+01    2.930519e+03
  1.104517e+01    2.943260e+03
  1.109767e+01    2.916175e+03
  1.115018e+01    2.856987e+03
  1.120268e+01    2.821931e+03
  1.125519e+01    2.794493e+03
  1.130770e+01    2.788743e+03
  1.136020e+01    2.796147e+03
  1.141271e+01    2.825087e+03
  1.146521e+01    2.850187e+03
  1.151772e+01    2.869511e+03
  1.157023e+01    2.882301e+03
  1.162273e+01    2.886592e+03
  1.167524e+01    2.839933e+03
  1.172774e+01    2.824565e+03
  1.178025e+01    2.798438e+03
  1.183276e+01    2.804655e+03
  1.188526e+01    2.796510e+03
  1.193777e+01    2.769622e+03
  1.199027e+01    2.717194e+03
  1.204278e+01    2.683840e+03
  1.209529e+01    2.672830e+03
  1.214779e+01    2.678784e+03
  1.220030e+01    2.700731e+03
  1.225280e+01    2.719167e+03
  1.230531e+01    2.717705e+03
  1.235782e+01    2.691477e+03
  1.241032e+01    2.661789e+03
  1.246283e+01    2.650410e+03
  1.251533e+01    2.636168e+03
  1.256784e+01    2.643728e+03
  1.262035e+01    2.642224e+03
  1.267285e+01    2.633483e+03
  1.272536e+01    2.617335e+03
  1.277786e+01    2.601444e+03
  1.283037e+01    2.583295e+03
  1.288288e+01    2.575755e+03
  1.293538e+01    2.564923e+03
  1.298789e+01    2.565936e+03
  1.304039e+01    2.568208e+03
  1.309290e+01    2.571966e+03
  1.314541e+01    2.572769e+03
  1.319791e+01    2.562220e+03
  1.325042e+01    2.541996e+03
  1.330292e+01    2.542033e+03
  1.335543e+01    2.558716e+03
  1.340794e+01    2.572129e+03
  1.346044e+01    2.582752e+03
  1.351295e+01    2.539790e+03
  1.356545e+01    2.511631e+03
  1.361796e+01    2.496214e+03
  1.367047e+01    2.494684e+03
  1.372297e+01    2.494421e+03
  1.377548e+01    2.489982e+03
  1.382798e+01    2.475126e+03
  1.388049e+01    2.459256e+03
  1.393300e+01    2.441205e+03
  1.398550e+01    2.434275e+03
  1.403801e+01    2.431025e+03
  1.409051e+01    2.429261e+03
  1.414302e+01    2.421029e+03
  1.419553e+01    2.410693e+03
  1.424803e+01    2.393940e+03
  1.430054e+01    2.382351e+03
  1.435304e+01    2.377893e+03
  1.440555e+01    2.373930e+03
  1.445806e+01    2.373005e+03
  1.451056e+01    2.363562e+03
  1.456307e+01    2.352367e+03
  1.461557e+01    2.347018e+03
  1.466808e+01    2.340760e+03
  1.472059e+01    2.339505e+03
  1.477309e+01    2.343685e+03
  1.482560e+01    2.332903e+03
  1.487810e+01    2.320296e+03
  1.493061e+01    2.309568e+03
  1.498312e+01    2.302763e+03
  1.503562e+01    2.302797e+03
  1.508813e+01    2.304501e+03
  1.514063e+01    2.305251e+03
  1.519314e+01    2.319882e+03
  1.524565e+01    2.348385e+03
  1.529815e+01    2.329135e+03
  1.535066e+01    2.322321e+03
  1.540316e+01    2.318539e+03
  1.545567e+01    2.307168e+03
  1.550818e+01    2.306824e+03
  1.556068e+01    2.296404e+03
  1.561319e+01    2.287722e+03
  1.566569e+01    2.287535e+03
  1.571820e+01    2.288673e+03
  1.577071e+01    2.289167e+03
  1.582321e+01    2.284210e+03
  1.587572e+01    2.275629e+03
  1.592822e+01    2.267385e+03
  1.598073e+01    2.259544e+03
  1.603324e+01    2.242010e+03
  1.608574e+01    2.226900e+03
  1.613825e+01    2.213393e+03
  1.619075e+01    2.213869e+03
  1.624326e+01    2.228002e+03
  1.629577e+01    2.223568e+03
  1.634827e+01    2.219378e+03
  1.640078e+01    2.214144e+03
  1.645328e+01    2.210502e+03
  1.650579e+01    2.211592e+03
  1.655830e+01    2.212004e+03
  1.661080e+01    2.210994e+03
  1.666331e+01    2.206039e+03
  1.671581e+01    2.199831e+03
  1.676832e+01    2.196915e+03
  1.682083e+01    2.190664e+03
  1.687333e+01    2.190534e+03
  1.692584e+01    2.190802e+03
  1.697834e+01    2.187481e+03
  1.703085e+01    2.181834e+03
  1.708336e+01    2.184326e+03
  1.713586e+01    2.179394e+03
  1.718837e+01    2.174779e+03
  1.724087e+01    2.165163e+03
  1.729338e+01    2.157036e+03
  1.734589e+01    2.151180e+03
  1.739839e+01    2.147317e+03
  1.745090e+01    2.143036e+03
  1.750340e+01    2.142694e+03
  1.755591e+01    2.136742e+03
  1.760842e+01    2.134711e+03
  1.766092e+01    2.129235e+03
  1.771343e+01    2.131620e+03
  1.776593e+01    2.124211e+03
  1.781844e+01    2.116769e+03
  1.787095e+01    2.114697e+03
  1.792345e+01    2.107496e+03
  1.797596e+01    2.105515e+03
  1.802846e+01    2.102871e+03
  1.808097e+01    2.094176e+03
  1.813348e+01    2.087579e+03
  1.818598e+01    2.079960e+03
  1.823849e+01    2.084627e+03
  1.829099e+01    2.074150e+03
  1.834350e+01    2.067964e+03
  1.839601e+01    2.062288e+03
  1.844851e+01    2.056334e+03
  1.850102e+01    2.055585e+03
  1.855352e+01    2.044500e+03
  1.860603e+01    2.042752e+03
  1.865854e+01    2.054905e+03
  1.871104e+01    2.060760e+03
  1.876355e+01    2.051005e+03
  1.881605e+01    2.045973e+03
  1.886856e+01    2.043741e+03
  1.892107e+01    2.039667e+03
  1.897357e+01    2.035038e+03
  1.902608e+01    2.028817e+03
  1.907858e+01    2.023794e+03
  1.913109e+01    2.016919e+03
  1.918360e+01    2.013007e+03
  1.923610e+01    2.006568e+03
  1.928861e+01    2.002060e+03
  1.934111e+01    1.996447e+03
  1.939362e+01    1.987424e+03
  1.944613e+01    1.984625e+03
  1.949863e+01    1.979625e+03
  1.955114e+01    1.971976e+03
  1.960364e+01    1.969281e+03
  1.965615e+01    1.961026e+03
  1.970866e+01    1.959740e+03
  1.976116e+01    1.952663e+03
  1.981367e+01    1.948971e+03
  1.986617e+01    1.942150e+03
  1.991868e+01    1.935522e+03
  1.997119e+01    1.932296e+03
  2.002369e+01    1.928308e+03
  2.007620e+01    1.919229e+03
  2.012870e+01    1.914742e+03
  2.018121e+01    1.909335e+03
  2.023372e+01    1.903943e+03
  2.028622e+01    1.893157e+03
  2.033873e+01    1.886242e+03
  2.039123e+01    1.880236e+03
  2.044374e+01    1.876128e+03
  2.049625e+01    1.870289e+03
  2.054875e+01    1.865042e+03
  2.060126e+01    1.859400e+03
  2.065376e+01    1.854623e+03
  2.070627e+01    1.847807e+03
  2.075878e+01    1.841736e+03
  2.081128e+01    1.851908e+03
  2.086379e+01    1.847379e+03
  2.091629e+01    1.831905e+03
  2.096880e+01    1.820031e+03
  2.102131e+01    1.812227e+03
  2.107381e+01    1.803110e+03
  2.112632e+01    1.791348e+03
  2.117882e+01    1.784149e+03
  2.123133e+01    1.772155e+03
  2.128384e+01    1.763024e+03
  2.133634e+01    1.753687e+03
  2.138885e+01    1.741858e+03
  2.144135e+01    1.734701e+03
  2.149386e+01    1.726042e+03
  2.154637e+01    1.719563e+03
  2.159887e+01    1.711094e+03
  2.165138e+01    1.701326e+03
  2.170388e+01    1.695017e+03
  2.175639e+01    1.691369e+03
  2.180890e+01    1.683282e+03
  2.186140e+01    1.673394e+03
  2.191391e+01    1.667974e+03
  2.196641e+01    1.658676e+03
  2.201892e+01    1.649025e+03
  2.207143e+01    1.638963e+03
  2.212393e+01    1.631130e+03
  2.217644e+01    1.621257e+03
  2.222894e+01    1.613871e+03
  2.228145e+01    1.606413e+03
  2.233396e+01    1.598022e+03
  2.238646e+01    1.586832e+03
  2.243897e+01    1.580742e+03
  2.249147e+01    1.572135e+03
  2.254398e+01    1.567105e+03
  2.259649e+01    1.569703e+03
  2.264899e+01    1.568582e+03
  2.270150e+01    1.567611e+03
  2.275400e+01    1.569288e+03
  2.280651e+01    1.567231e+03
  2.285902e+01    1.566053e+03
  2.291152e+01    1.567913e+03
  2.296403e+01    1.567814e+03
  2.301653e+01    1.566158e+03
  2.306904e+01    1.565679e+03
  2.312155e+01    1.562903e+03
  2.317405e+01    1.560758e+03
  2.322656e+01    1.555698e+03
  2.327906e+01    1.551714e+03
  2.333157e+01    1.549363e+03
  2.338408e+01    1.551416e+03
  2.343658e+01    1.549819e+03
  2.348909e+01    1.545617e+03
  2.354159e+01    1.542862e+03
  2.359410e+01    1.537462e+03
  2.364661e+01    1.535706e+03
  2.369911e+01    1.532189e+03
  2.375162e+01    1.526070e+03
  2.380412e+01    1.517089e+03
  2.385663e+01    1.510296e+03
  2.390914e+01    1.505066e+03
  2.396164e+01    1.499643e+03
  2.401415e+01    1.497171e+03
  2.406665e+01    1.492712e+03
  2.411916e+01    1.485470e+03
  2.417167e+01    1.479861e+03
  2.422417e+01    1.470910e+03
  2.427668e+01    1.464020e+03
  2.432918e+01    1.461782e+03
  2.438169e+01    1.453441e+03
  2.443420e+01    1.451279e+03
  2.448670e+01    1.441685e+03
  2.453921e+01    1.437936e+03
  2.459171e+01    1.433909e+03
  2.464422e+01    1.433639e+03
  2.469673e+01    1.422399e+03
  2.474923e+01    1.416201e+03
  2.480174e+01    1.404257e+03
  2.485425e+01    1.396777e+03
  2.490675e+01    1.389909e+03
  2.495926e+01    1.380597e+03
  2.501176e+01    1.374073e+03
  2.506427e+01    1.364179e+03
  2.511678e+01    1.358788e+03
  2.516928e+01    1.352239e+03
  2.522179e+01    1.344548e+03
  2.527429e+01    1.336826e+03
  2.532680e+01    1.327910e+03
  2.537931e+01    1.320885e+03
  2.543181e+01    1.312057e+03
  2.548432e+01    1.297267e+03
  2.553682e+01    1.285687e+03
  2.558933e+01    1.281342e+03
  2.564184e+01    1.274220e+03
  2.569434e+01    1.259810e+03
  2.574685e+01    1.249939e+03
  2.579935e+01    1.232033e+03
  2.585186e+01    1.225858e+03
  2.590437e+01    1.217921e+03
  2.595687e+01    1.213281e+03
  2.600938e+01    1.210050e+03
  2.606188e+01    1.203686e+03
  2.611439e+01    1.202228e+03
  2.616690e+01    1.200965e+03
  2.621940e+01    1.190086e+03
  2.627191e+01    1.173749e+03
  2.632441e+01    1.179318e+03
  2.637692e+01    1.167973e+03
  2.642943e+01    1.155737e+03
  2.648193e+01    1.152280e+03
