# == pyFAI calibration ==
# Distance Sample to Detector: 0.2945755399789714 m
# PONI: 2.880e-01, 2.450e-01 m
# Rotations: -0.007291 -0.010887 -0.000000 rad
# 
# == Fit2d calibration ==
# Distance Sample-beamCenter: 294.601 mm
# Center: x=1437.174, y=1655.617 pix
# Tilt: 0.751 deg  TiltPlanRot: -56.193 deg
# 
# Detector Pilatus CdTe 2M	 PixelSize= 1.720e-04, 1.720e-04 m
#    Detector has a mask: True 
#    Detector has a dark current: False 
#    detector has a flat field: False 
# 
# Wavelength: 2.0732883349524408e-11 m
# Mask applied: from detector
# Dark current applied: False
# Flat field applied: False
# Polarization factor: 0.9000000000000002
# Normalization factor: 1.0
# --> /gpfs/current/raw/FMue_2_third_run/FMue_2_third_20231024_085044_00075.dat
#        q_A^-1             I 
  2.814346e-01    8.141312e+04
  3.339406e-01    4.644841e+04
  3.864466e-01    3.463796e+04
  4.389526e-01    2.866711e+04
  4.914586e-01    2.470525e+04
  5.439646e-01    2.235532e+04
  5.964706e-01    2.072259e+04
  6.489766e-01    1.925837e+04
  7.014826e-01    1.817454e+04
  7.539886e-01    1.721468e+04
  8.064947e-01    1.642213e+04
  8.590007e-01    1.574078e+04
  9.115067e-01    1.523025e+04
  9.640127e-01    1.481225e+04
  1.016519e+00    1.453792e+04
  1.069025e+00    1.443294e+04
  1.121531e+00    1.454159e+04
  1.174037e+00    1.479599e+04
  1.226543e+00    1.526901e+04
  1.279049e+00    1.617593e+04
  1.331555e+00    1.727365e+04
  1.384061e+00    1.772627e+04
  1.436567e+00    1.770132e+04
  1.489073e+00    1.752856e+04
  1.541579e+00    1.707717e+04
  1.594085e+00    1.636144e+04
  1.646591e+00    1.553770e+04
  1.699097e+00    1.453746e+04
  1.751603e+00    1.358863e+04
  1.804109e+00    1.274466e+04
  1.856615e+00    1.205390e+04
  1.909121e+00    1.152627e+04
  1.961627e+00    1.111866e+04
  2.014133e+00    1.086804e+04
  2.066639e+00    1.093012e+04
  2.119145e+00    1.176346e+04
  2.171651e+00    1.315405e+04
  2.224157e+00    1.272416e+04
  2.276663e+00    1.117219e+04
  2.329169e+00    1.040033e+04
  2.381675e+00    1.027828e+04
  2.434181e+00    1.090814e+04
  2.486687e+00    1.351623e+04
  2.539193e+00    1.905607e+04
  2.591699e+00    1.948141e+04
  2.644205e+00    1.413156e+04
  2.696711e+00    1.099627e+04
  2.749217e+00    9.491605e+03
  2.801723e+00    8.307230e+03
  2.854229e+00    7.605109e+03
  2.906735e+00    7.321792e+03
  2.959241e+00    7.304213e+03
  3.011747e+00    7.863525e+03
  3.064253e+00    9.644572e+03
  3.116759e+00    1.149359e+04
  3.169265e+00    1.126353e+04
  3.221771e+00    9.389317e+03
  3.274277e+00    7.409418e+03
  3.326783e+00    6.656329e+03
  3.379289e+00    6.475661e+03
  3.431795e+00    6.384932e+03
  3.484301e+00    6.348364e+03
  3.536807e+00    6.320136e+03
  3.589313e+00    6.305046e+03
  3.641819e+00    6.416432e+03
  3.694325e+00    6.628460e+03
  3.746831e+00    7.131151e+03
  3.799337e+00    7.531069e+03
  3.851843e+00    7.382125e+03
  3.904349e+00    7.562658e+03
  3.956855e+00    8.760982e+03
  4.009361e+00    1.037754e+04
  4.061867e+00    1.011873e+04
  4.114373e+00    8.732150e+03
  4.166879e+00    7.921752e+03
  4.219385e+00    7.644869e+03
  4.271891e+00    8.026487e+03
  4.324397e+00    1.002827e+04
  4.376903e+00    1.347201e+04
  4.429409e+00    1.435579e+04
  4.481915e+00    1.312850e+04
  4.534421e+00    1.024027e+04
  4.586927e+00    7.830500e+03
  4.639433e+00    6.825070e+03
  4.691939e+00    6.476988e+03
  4.744445e+00    6.329688e+03
  4.796951e+00    6.303760e+03
  4.849457e+00    6.421864e+03
  4.901963e+00    6.523016e+03
  4.954469e+00    6.566231e+03
  5.006975e+00    6.814034e+03
  5.059481e+00    7.303099e+03
  5.111987e+00    7.360534e+03
  5.164493e+00    6.757131e+03
  5.216999e+00    6.109445e+03
  5.269505e+00    5.734000e+03
  5.322011e+00    5.623058e+03
  5.374517e+00    5.597511e+03
  5.427023e+00    5.457013e+03
  5.479529e+00    5.362571e+03
  5.532035e+00    5.077042e+03
  5.584541e+00    4.769271e+03
  5.637047e+00    4.636931e+03
  5.689553e+00    4.642416e+03
  5.742059e+00    4.800797e+03
  5.794565e+00    4.977205e+03
  5.847071e+00    5.121412e+03
  5.899577e+00    5.478365e+03
  5.952083e+00    5.773193e+03
  6.004589e+00    5.434540e+03
  6.057095e+00    5.004529e+03
  6.109601e+00    4.878843e+03
  6.162107e+00    4.939845e+03
  6.214613e+00    4.966370e+03
  6.267119e+00    4.855865e+03
  6.319625e+00    4.713999e+03
  6.372131e+00    4.577285e+03
  6.424637e+00    4.431154e+03
  6.477143e+00    4.337358e+03
  6.529649e+00    4.371147e+03
  6.582155e+00    4.472430e+03
  6.634661e+00    4.630975e+03
  6.687167e+00    4.847917e+03
  6.739673e+00    4.851960e+03
  6.792179e+00    4.527771e+03
  6.844685e+00    4.268379e+03
  6.897191e+00    4.183377e+03
  6.949697e+00    4.218606e+03
  7.002203e+00    4.156833e+03
  7.054709e+00    4.121340e+03
  7.107215e+00    4.050627e+03
  7.159721e+00    3.969877e+03
  7.212227e+00    3.923183e+03
  7.264733e+00    3.952263e+03
  7.317239e+00    4.074259e+03
  7.369745e+00    4.205014e+03
  7.422251e+00    4.218287e+03
  7.474757e+00    4.189400e+03
  7.527263e+00    4.346950e+03
  7.579769e+00    4.581905e+03
  7.632275e+00    4.510976e+03
  7.684781e+00    4.385341e+03
  7.737287e+00    4.384056e+03
  7.789793e+00    4.272434e+03
  7.842299e+00    4.108105e+03
  7.894805e+00    4.083495e+03
  7.947311e+00    4.088563e+03
  7.999817e+00    4.146367e+03
  8.052323e+00    4.066244e+03
  8.104829e+00    3.886192e+03
  8.157335e+00    3.751556e+03
  8.209841e+00    3.685672e+03
  8.262347e+00    3.643503e+03
  8.314853e+00    3.598265e+03
  8.367359e+00    3.560684e+03
  8.419865e+00    3.546676e+03
  8.472371e+00    3.548439e+03
  8.524877e+00    3.549740e+03
  8.577383e+00    3.565381e+03
  8.629889e+00    3.540030e+03
  8.682395e+00    3.518196e+03
  8.734901e+00    3.541882e+03
  8.787407e+00    3.539160e+03
  8.839913e+00    3.482291e+03
  8.892419e+00    3.450712e+03
  8.944925e+00    3.447791e+03
  8.997431e+00    3.439424e+03
  9.049937e+00    3.428454e+03
  9.102443e+00    3.452094e+03
  9.154949e+00    3.439795e+03
  9.207455e+00    3.358124e+03
  9.259961e+00    3.286962e+03
  9.312467e+00    3.244460e+03
  9.364973e+00    3.198682e+03
  9.417480e+00    3.171421e+03
  9.469986e+00    3.189206e+03
  9.522492e+00    3.214882e+03
  9.574998e+00    3.235195e+03
  9.627504e+00    3.255423e+03
  9.680010e+00    3.235690e+03
  9.732516e+00    3.217818e+03
  9.785022e+00    3.204971e+03
  9.837528e+00    3.175635e+03
  9.890034e+00    3.135435e+03
  9.942540e+00    3.110163e+03
  9.995046e+00    3.113952e+03
  1.004755e+01    3.124421e+03
  1.010006e+01    3.106873e+03
  1.015256e+01    3.077458e+03
  1.020507e+01    3.006487e+03
  1.025758e+01    2.951537e+03
  1.031008e+01    2.931676e+03
  1.036259e+01    2.943418e+03
  1.041509e+01    2.932839e+03
  1.046760e+01    2.928636e+03
  1.052011e+01    2.935863e+03
  1.057261e+01    2.932740e+03
  1.062512e+01    2.919032e+03
  1.067762e+01    2.898209e+03
  1.073013e+01    2.881980e+03
  1.078264e+01    2.872327e+03
  1.083514e+01    2.856633e+03
  1.088765e+01    2.863517e+03
  1.094015e+01    2.884265e+03
  1.099266e+01    2.903890e+03
  1.104517e+01    2.894639e+03
  1.109767e+01    2.865931e+03
  1.115018e+01    2.825665e+03
  1.120268e+01    2.804495e+03
  1.125519e+01    2.788906e+03
  1.130770e+01    2.786855e+03
  1.136020e+01    2.790852e+03
  1.141271e+01    2.811752e+03
  1.146521e+01    2.819643e+03
  1.151772e+01    2.831359e+03
  1.157023e+01    2.833640e+03
  1.162273e+01    2.816605e+03
  1.167524e+01    2.781218e+03
  1.172774e+01    2.788012e+03
  1.178025e+01    2.772548e+03
  1.183276e+01    2.770776e+03
  1.188526e+01    2.753380e+03
  1.193777e+01    2.728237e+03
  1.199027e+01    2.692670e+03
  1.204278e+01    2.676029e+03
  1.209529e+01    2.674518e+03
  1.214779e+01    2.680553e+03
  1.220030e+01    2.690244e+03
  1.225280e+01    2.690975e+03
  1.230531e+01    2.679235e+03
  1.235782e+01    2.657860e+03
  1.241032e+01    2.642097e+03
  1.246283e+01    2.635295e+03
  1.251533e+01    2.626330e+03
  1.256784e+01    2.628905e+03
  1.262035e+01    2.623056e+03
  1.267285e+01    2.611363e+03
  1.272536e+01    2.599542e+03
  1.277786e+01    2.586885e+03
  1.283037e+01    2.573562e+03
  1.288288e+01    2.567001e+03
  1.293538e+01    2.557278e+03
  1.298789e+01    2.554156e+03
  1.304039e+01    2.551548e+03
  1.309290e+01    2.553006e+03
  1.314541e+01    2.547519e+03
  1.319791e+01    2.530319e+03
  1.325042e+01    2.514753e+03
  1.330292e+01    2.512404e+03
  1.335543e+01    2.516786e+03
  1.340794e+01    2.513053e+03
  1.346044e+01    2.523979e+03
  1.351295e+01    2.497108e+03
  1.356545e+01    2.481166e+03
  1.361796e+01    2.471539e+03
  1.367047e+01    2.469711e+03
  1.372297e+01    2.462663e+03
  1.377548e+01    2.454149e+03
  1.382798e+01    2.440179e+03
  1.388049e+01    2.427841e+03
  1.393300e+01    2.417156e+03
  1.398550e+01    2.415334e+03
  1.403801e+01    2.411788e+03
  1.409051e+01    2.402274e+03
  1.414302e+01    2.393406e+03
  1.419553e+01    2.385063e+03
  1.424803e+01    2.373458e+03
  1.430054e+01    2.363897e+03
  1.435304e+01    2.360199e+03
  1.440555e+01    2.353124e+03
  1.445806e+01    2.346953e+03
  1.451056e+01    2.339044e+03
  1.456307e+01    2.329762e+03
  1.461557e+01    2.324753e+03
  1.466808e+01    2.319545e+03
  1.472059e+01    2.317683e+03
  1.477309e+01    2.318915e+03
  1.482560e+01    2.310584e+03
  1.487810e+01    2.300264e+03
  1.493061e+01    2.294975e+03
  1.498312e+01    2.290261e+03
  1.503562e+01    2.287006e+03
  1.508813e+01    2.285240e+03
  1.514063e+01    2.286486e+03
  1.519314e+01    2.298968e+03
  1.524565e+01    2.327291e+03
  1.529815e+01    2.307093e+03
  1.535066e+01    2.295510e+03
  1.540316e+01    2.288479e+03
  1.545567e+01    2.275193e+03
  1.550818e+01    2.277267e+03
  1.556068e+01    2.273032e+03
  1.561319e+01    2.266649e+03
  1.566569e+01    2.264242e+03
  1.571820e+01    2.261663e+03
  1.577071e+01    2.257935e+03
  1.582321e+01    2.253000e+03
  1.587572e+01    2.246025e+03
  1.592822e+01    2.239720e+03
  1.598073e+01    2.233834e+03
  1.603324e+01    2.217244e+03
  1.608574e+01    2.202235e+03
  1.613825e+01    2.191752e+03
  1.619075e+01    2.194233e+03
  1.624326e+01    2.210110e+03
  1.629577e+01    2.205227e+03
  1.634827e+01    2.201256e+03
  1.640078e+01    2.196763e+03
  1.645328e+01    2.192112e+03
  1.650579e+01    2.192936e+03
  1.655830e+01    2.191326e+03
  1.661080e+01    2.183623e+03
  1.666331e+01    2.180233e+03
  1.671581e+01    2.173632e+03
  1.676832e+01    2.171385e+03
  1.682083e+01    2.167499e+03
  1.687333e+01    2.163226e+03
  1.692584e+01    2.162357e+03
  1.697834e+01    2.155849e+03
  1.703085e+01    2.150781e+03
  1.708336e+01    2.149212e+03
  1.713586e+01    2.142842e+03
  1.718837e+01    2.137471e+03
  1.724087e+01    2.131186e+03
  1.729338e+01    2.126487e+03
  1.734589e+01    2.121151e+03
  1.739839e+01    2.116956e+03
  1.745090e+01    2.114068e+03
  1.750340e+01    2.113357e+03
  1.755591e+01    2.107247e+03
  1.760842e+01    2.104223e+03
  1.766092e+01    2.098117e+03
  1.771343e+01    2.096950e+03
  1.776593e+01    2.088731e+03
  1.781844e+01    2.083108e+03
  1.787095e+01    2.077530e+03
  1.792345e+01    2.071663e+03
  1.797596e+01    2.066813e+03
  1.802846e+01    2.062710e+03
  1.808097e+01    2.054093e+03
  1.813348e+01    2.050058e+03
  1.818598e+01    2.042757e+03
  1.823849e+01    2.048306e+03
  1.829099e+01    2.036866e+03
  1.834350e+01    2.030974e+03
  1.839601e+01    2.024823e+03
  1.844851e+01    2.020552e+03
  1.850102e+01    2.016624e+03
  1.855352e+01    2.012463e+03
  1.860603e+01    2.008584e+03
  1.865854e+01    2.017130e+03
  1.871104e+01    2.021028e+03
  1.876355e+01    2.011217e+03
  1.881605e+01    2.002982e+03
  1.886856e+01    2.002350e+03
  1.892107e+01    1.998275e+03
  1.897357e+01    1.990720e+03
  1.902608e+01    1.984001e+03
  1.907858e+01    1.977722e+03
  1.913109e+01    1.970818e+03
  1.918360e+01    1.964577e+03
  1.923610e+01    1.958344e+03
  1.928861e+01    1.952098e+03
  1.934111e+01    1.947825e+03
  1.939362e+01    1.936642e+03
  1.944613e+01    1.934411e+03
  1.949863e+01    1.926366e+03
  1.955114e+01    1.919465e+03
  1.960364e+01    1.916455e+03
  1.965615e+01    1.908857e+03
  1.970866e+01    1.906253e+03
  1.976116e+01    1.899636e+03
  1.981367e+01    1.895340e+03
  1.986617e+01    1.888706e+03
  1.991868e+01    1.882124e+03
  1.997119e+01    1.878176e+03
  2.002369e+01    1.872312e+03
  2.007620e+01    1.864578e+03
  2.012870e+01    1.857875e+03
  2.018121e+01    1.852183e+03
  2.023372e+01    1.847573e+03
  2.028622e+01    1.838837e+03
  2.033873e+01    1.829980e+03
  2.039123e+01    1.824978e+03
  2.044374e+01    1.819571e+03
  2.049625e+01    1.815671e+03
  2.054875e+01    1.808277e+03
  2.060126e+01    1.803223e+03
  2.065376e+01    1.799370e+03
  2.070627e+01    1.794920e+03
  2.075878e+01    1.790250e+03
  2.081128e+01    1.796438e+03
  2.086379e+01    1.790485e+03
  2.091629e+01    1.775364e+03
  2.096880e+01    1.762704e+03
  2.102131e+01    1.755913e+03
  2.107381e+01    1.746301e+03
  2.112632e+01    1.734015e+03
  2.117882e+01    1.726845e+03
  2.123133e+01    1.717151e+03
  2.128384e+01    1.707468e+03
  2.133634e+01    1.700095e+03
  2.138885e+01    1.686084e+03
  2.144135e+01    1.680402e+03
  2.149386e+01    1.671797e+03
  2.154637e+01    1.664536e+03
  2.159887e+01    1.657936e+03
  2.165138e+01    1.648451e+03
  2.170388e+01    1.641571e+03
  2.175639e+01    1.636652e+03
  2.180890e+01    1.627768e+03
  2.186140e+01    1.619902e+03
  2.191391e+01    1.613033e+03
  2.196641e+01    1.603308e+03
  2.201892e+01    1.594588e+03
  2.207143e+01    1.584504e+03
  2.212393e+01    1.577859e+03
  2.217644e+01    1.567233e+03
  2.222894e+01    1.558127e+03
  2.228145e+01    1.552349e+03
  2.233396e+01    1.544008e+03
  2.238646e+01    1.533755e+03
  2.243897e+01    1.525435e+03
  2.249147e+01    1.516657e+03
  2.254398e+01    1.512172e+03
  2.259649e+01    1.517261e+03
  2.264899e+01    1.512405e+03
  2.270150e+01    1.513252e+03
  2.275400e+01    1.513562e+03
  2.280651e+01    1.512225e+03
  2.285902e+01    1.509382e+03
  2.291152e+01    1.510511e+03
  2.296403e+01    1.510351e+03
  2.301653e+01    1.508806e+03
  2.306904e+01    1.505794e+03
  2.312155e+01    1.501868e+03
  2.317405e+01    1.500303e+03
  2.322656e+01    1.495550e+03
  2.327906e+01    1.490064e+03
  2.333157e+01    1.488016e+03
  2.338408e+01    1.487542e+03
  2.343658e+01    1.486892e+03
  2.348909e+01    1.483763e+03
  2.354159e+01    1.478109e+03
  2.359410e+01    1.474949e+03
  2.364661e+01    1.474152e+03
  2.369911e+01    1.466607e+03
  2.375162e+01    1.459118e+03
  2.380412e+01    1.452173e+03
  2.385663e+01    1.444403e+03
  2.390914e+01    1.439424e+03
  2.396164e+01    1.434089e+03
  2.401415e+01    1.430031e+03
  2.406665e+01    1.423323e+03
  2.411916e+01    1.417562e+03
  2.417167e+01    1.408746e+03
  2.422417e+01    1.402802e+03
  2.427668e+01    1.397947e+03
  2.432918e+01    1.390658e+03
  2.438169e+01    1.385821e+03
  2.443420e+01    1.382889e+03
  2.448670e+01    1.373953e+03
  2.453921e+01    1.369700e+03
  2.459171e+01    1.369321e+03
  2.464422e+01    1.367289e+03
  2.469673e+01    1.355735e+03
  2.474923e+01    1.349941e+03
  2.480174e+01    1.339081e+03
  2.485425e+01    1.331070e+03
  2.490675e+01    1.322091e+03
  2.495926e+01    1.314396e+03
  2.501176e+01    1.305006e+03
  2.506427e+01    1.301033e+03
  2.511678e+01    1.290171e+03
  2.516928e+01    1.285856e+03
  2.522179e+01    1.278709e+03
  2.527429e+01    1.270906e+03
  2.532680e+01    1.261314e+03
  2.537931e+01    1.253469e+03
  2.543181e+01    1.249019e+03
  2.548432e+01    1.230695e+03
  2.553682e+01    1.221171e+03
  2.558933e+01    1.215120e+03
  2.564184e+01    1.204494e+03
  2.569434e+01    1.193369e+03
  2.574685e+01    1.183439e+03
  2.579935e+01    1.167279e+03
  2.585186e+01    1.165431e+03
  2.590437e+01    1.157352e+03
  2.595687e+01    1.150177e+03
  2.600938e+01    1.150426e+03
  2.606188e+01    1.145308e+03
  2.611439e+01    1.143021e+03
  2.616690e+01    1.136403e+03
  2.621940e+01    1.139624e+03
  2.627191e+01    1.116119e+03
  2.632441e+01    1.120750e+03
  2.637692e+01    1.113717e+03
  2.642943e+01    1.099980e+03
  2.648193e+01    1.073573e+03
