# == pyFAI calibration ==
# Distance Sample to Detector: 0.2945755399789714 m
# PONI: 2.880e-01, 2.450e-01 m
# Rotations: -0.007291 -0.010887 -0.000000 rad
# 
# == Fit2d calibration ==
# Distance Sample-beamCenter: 294.601 mm
# Center: x=1437.174, y=1655.617 pix
# Tilt: 0.751 deg  TiltPlanRot: -56.193 deg
# 
# Detector Pilatus CdTe 2M	 PixelSize= 1.720e-04, 1.720e-04 m
#    Detector has a mask: True 
#    Detector has a dark current: False 
#    detector has a flat field: False 
# 
# Wavelength: 2.0732883349524408e-11 m
# Mask applied: from detector
# Dark current applied: False
# Flat field applied: False
# Polarization factor: 0.9000000000000002
# Normalization factor: 1.0
# --> /gpfs/current/raw/FMue_2_third_run/FMue_2_third_20231024_085044_00042.dat
#        q_A^-1             I 
  2.814346e-01    8.194690e+04
  3.339406e-01    4.664217e+04
  3.864466e-01    3.473972e+04
  4.389526e-01    2.869892e+04
  4.914586e-01    2.473889e+04
  5.439646e-01    2.240330e+04
  5.964706e-01    2.075318e+04
  6.489766e-01    1.931809e+04
  7.014826e-01    1.823107e+04
  7.539886e-01    1.724688e+04
  8.064947e-01    1.645664e+04
  8.590007e-01    1.579565e+04
  9.115067e-01    1.527804e+04
  9.640127e-01    1.485637e+04
  1.016519e+00    1.457819e+04
  1.069025e+00    1.447966e+04
  1.121531e+00    1.456747e+04
  1.174037e+00    1.481681e+04
  1.226543e+00    1.528590e+04
  1.279049e+00    1.618405e+04
  1.331555e+00    1.733902e+04
  1.384061e+00    1.777632e+04
  1.436567e+00    1.774231e+04
  1.489073e+00    1.755231e+04
  1.541579e+00    1.710120e+04
  1.594085e+00    1.638595e+04
  1.646591e+00    1.556061e+04
  1.699097e+00    1.456159e+04
  1.751603e+00    1.361342e+04
  1.804109e+00    1.276159e+04
  1.856615e+00    1.206662e+04
  1.909121e+00    1.153941e+04
  1.961627e+00    1.113438e+04
  2.014133e+00    1.086720e+04
  2.066639e+00    1.091956e+04
  2.119145e+00    1.169784e+04
  2.171651e+00    1.311808e+04
  2.224157e+00    1.285142e+04
  2.276663e+00    1.128365e+04
  2.329169e+00    1.044214e+04
  2.381675e+00    1.027127e+04
  2.434181e+00    1.082975e+04
  2.486687e+00    1.323475e+04
  2.539193e+00    1.875644e+04
  2.591699e+00    1.993362e+04
  2.644205e+00    1.460057e+04
  2.696711e+00    1.118041e+04
  2.749217e+00    9.614696e+03
  2.801723e+00    8.387418e+03
  2.854229e+00    7.619352e+03
  2.906735e+00    7.305623e+03
  2.959241e+00    7.253276e+03
  3.011747e+00    7.737698e+03
  3.064253e+00    9.445331e+03
  3.116759e+00    1.152787e+04
  3.169265e+00    1.151211e+04
  3.221771e+00    9.678626e+03
  3.274277e+00    7.529487e+03
  3.326783e+00    6.652671e+03
  3.379289e+00    6.443531e+03
  3.431795e+00    6.336875e+03
  3.484301e+00    6.294791e+03
  3.536807e+00    6.272037e+03
  3.589313e+00    6.251625e+03
  3.641819e+00    6.357198e+03
  3.694325e+00    6.555493e+03
  3.746831e+00    7.039063e+03
  3.799337e+00    7.492472e+03
  3.851843e+00    7.379790e+03
  3.904349e+00    7.469562e+03
  3.956855e+00    8.580343e+03
  4.009361e+00    1.032956e+04
  4.061867e+00    1.036551e+04
  4.114373e+00    8.926451e+03
  4.166879e+00    7.981317e+03
  4.219385e+00    7.624319e+03
  4.271891e+00    7.888392e+03
  4.324397e+00    9.661758e+03
  4.376903e+00    1.328749e+04
  4.429409e+00    1.471647e+04
  4.481915e+00    1.369100e+04
  4.534421e+00    1.078384e+04
  4.586927e+00    8.039618e+03
  4.639433e+00    6.843765e+03
  4.691939e+00    6.426056e+03
  4.744445e+00    6.256572e+03
  4.796951e+00    6.215211e+03
  4.849457e+00    6.331016e+03
  4.901963e+00    6.455897e+03
  4.954469e+00    6.508221e+03
  5.006975e+00    6.721533e+03
  5.059481e+00    7.241804e+03
  5.111987e+00    7.425518e+03
  5.164493e+00    6.868540e+03
  5.216999e+00    6.164430e+03
  5.269505e+00    5.729550e+03
  5.322011e+00    5.577609e+03
  5.374517e+00    5.575214e+03
  5.427023e+00    5.450038e+03
  5.479529e+00    5.362417e+03
  5.532035e+00    5.110017e+03
  5.584541e+00    4.764120e+03
  5.637047e+00    4.601298e+03
  5.689553e+00    4.588160e+03
  5.742059e+00    4.739688e+03
  5.794565e+00    4.947522e+03
  5.847071e+00    5.098549e+03
  5.899577e+00    5.428265e+03
  5.952083e+00    5.842889e+03
  6.004589e+00    5.583444e+03
  6.057095e+00    5.075051e+03
  6.109601e+00    4.880943e+03
  6.162107e+00    4.921312e+03
  6.214613e+00    4.998248e+03
  6.267119e+00    4.897521e+03
  6.319625e+00    4.745430e+03
  6.372131e+00    4.600933e+03
  6.424637e+00    4.440794e+03
  6.477143e+00    4.314834e+03
  6.529649e+00    4.338456e+03
  6.582155e+00    4.440282e+03
  6.634661e+00    4.592709e+03
  6.687167e+00    4.834274e+03
  6.739673e+00    4.927455e+03
  6.792179e+00    4.618004e+03
  6.844685e+00    4.287795e+03
  6.897191e+00    4.163397e+03
  6.949697e+00    4.210060e+03
  7.002203e+00    4.152170e+03
  7.054709e+00    4.117640e+03
  7.107215e+00    4.054004e+03
  7.159721e+00    3.959920e+03
  7.212227e+00    3.892922e+03
  7.264733e+00    3.906927e+03
  7.317239e+00    4.025061e+03
  7.369745e+00    4.188677e+03
  7.422251e+00    4.237581e+03
  7.474757e+00    4.194182e+03
  7.527263e+00    4.314077e+03
  7.579769e+00    4.603279e+03
  7.632275e+00    4.617820e+03
  7.684781e+00    4.443833e+03
  7.737287e+00    4.441046e+03
  7.789793e+00    4.360005e+03
  7.842299e+00    4.162225e+03
  7.894805e+00    4.094776e+03
  7.947311e+00    4.088605e+03
  7.999817e+00    4.173115e+03
  8.052323e+00    4.130368e+03
  8.104829e+00    3.936826e+03
  8.157335e+00    3.768695e+03
  8.209841e+00    3.678909e+03
  8.262347e+00    3.627945e+03
  8.314853e+00    3.582042e+03
  8.367359e+00    3.539217e+03
  8.419865e+00    3.523786e+03
  8.472371e+00    3.529648e+03
  8.524877e+00    3.535060e+03
  8.577383e+00    3.554683e+03
  8.629889e+00    3.537454e+03
  8.682395e+00    3.504493e+03
  8.734901e+00    3.531065e+03
  8.787407e+00    3.541875e+03
  8.839913e+00    3.490125e+03
  8.892419e+00    3.448511e+03
  8.944925e+00    3.446772e+03
  8.997431e+00    3.444872e+03
  9.049937e+00    3.430418e+03
  9.102443e+00    3.453422e+03
  9.154949e+00    3.463609e+03
  9.207455e+00    3.385815e+03
  9.259961e+00    3.296943e+03
  9.312467e+00    3.244240e+03
  9.364973e+00    3.194177e+03
  9.417480e+00    3.158336e+03
  9.469986e+00    3.179535e+03
  9.522492e+00    3.210444e+03
  9.574998e+00    3.238579e+03
  9.627504e+00    3.271203e+03
  9.680010e+00    3.264622e+03
  9.732516e+00    3.237053e+03
  9.785022e+00    3.228009e+03
  9.837528e+00    3.205294e+03
  9.890034e+00    3.156836e+03
  9.942540e+00    3.122023e+03
  9.995046e+00    3.122315e+03
  1.004755e+01    3.138670e+03
  1.010006e+01    3.132927e+03
  1.015256e+01    3.113017e+03
  1.020507e+01    3.038496e+03
  1.025758e+01    2.962602e+03
  1.031008e+01    2.932493e+03
  1.036259e+01    2.945431e+03
  1.041509e+01    2.928792e+03
  1.046760e+01    2.926470e+03
  1.052011e+01    2.934448e+03
  1.057261e+01    2.939549e+03
  1.062512e+01    2.929121e+03
  1.067762e+01    2.902699e+03
  1.073013e+01    2.882191e+03
  1.078264e+01    2.871228e+03
  1.083514e+01    2.851062e+03
  1.088765e+01    2.855071e+03
  1.094015e+01    2.882111e+03
  1.099266e+01    2.913578e+03
  1.104517e+01    2.915277e+03
  1.109767e+01    2.886051e+03
  1.115018e+01    2.835738e+03
  1.120268e+01    2.807133e+03
  1.125519e+01    2.784836e+03
  1.130770e+01    2.782997e+03
  1.136020e+01    2.788012e+03
  1.141271e+01    2.810900e+03
  1.146521e+01    2.828137e+03
  1.151772e+01    2.847284e+03
  1.157023e+01    2.854726e+03
  1.162273e+01    2.847823e+03
  1.167524e+01    2.806646e+03
  1.172774e+01    2.798932e+03
  1.178025e+01    2.780620e+03
  1.183276e+01    2.784377e+03
  1.188526e+01    2.772221e+03
  1.193777e+01    2.742231e+03
  1.199027e+01    2.700884e+03
  1.204278e+01    2.671294e+03
  1.209529e+01    2.664585e+03
  1.214779e+01    2.673496e+03
  1.220030e+01    2.687723e+03
  1.225280e+01    2.700854e+03
  1.230531e+01    2.692361e+03
  1.235782e+01    2.666582e+03
  1.241032e+01    2.645326e+03
  1.246283e+01    2.634431e+03
  1.251533e+01    2.624695e+03
  1.256784e+01    2.629804e+03
  1.262035e+01    2.626767e+03
  1.267285e+01    2.617919e+03
  1.272536e+01    2.602726e+03
  1.277786e+01    2.588257e+03
  1.283037e+01    2.572771e+03
  1.288288e+01    2.564956e+03
  1.293538e+01    2.555317e+03
  1.298789e+01    2.552773e+03
  1.304039e+01    2.555005e+03
  1.309290e+01    2.556566e+03
  1.314541e+01    2.554608e+03
  1.319791e+01    2.541605e+03
  1.325042e+01    2.523324e+03
  1.330292e+01    2.523445e+03
  1.335543e+01    2.536701e+03
  1.340794e+01    2.540077e+03
  1.346044e+01    2.548005e+03
  1.351295e+01    2.514694e+03
  1.356545e+01    2.490014e+03
  1.361796e+01    2.477663e+03
  1.367047e+01    2.476386e+03
  1.372297e+01    2.475249e+03
  1.377548e+01    2.465306e+03
  1.382798e+01    2.452038e+03
  1.388049e+01    2.437009e+03
  1.393300e+01    2.423296e+03
  1.398550e+01    2.419530e+03
  1.403801e+01    2.417610e+03
  1.409051e+01    2.410293e+03
  1.414302e+01    2.400525e+03
  1.419553e+01    2.393324e+03
  1.424803e+01    2.381800e+03
  1.430054e+01    2.367851e+03
  1.435304e+01    2.364474e+03
  1.440555e+01    2.357668e+03
  1.445806e+01    2.355406e+03
  1.451056e+01    2.346550e+03
  1.456307e+01    2.337262e+03
  1.461557e+01    2.330994e+03
  1.466808e+01    2.322389e+03
  1.472059e+01    2.323466e+03
  1.477309e+01    2.325785e+03
  1.482560e+01    2.316784e+03
  1.487810e+01    2.304531e+03
  1.493061e+01    2.297413e+03
  1.498312e+01    2.290286e+03
  1.503562e+01    2.289663e+03
  1.508813e+01    2.289624e+03
  1.514063e+01    2.290747e+03
  1.519314e+01    2.303085e+03
  1.524565e+01    2.330136e+03
  1.529815e+01    2.310812e+03
  1.535066e+01    2.303004e+03
  1.540316e+01    2.297968e+03
  1.545567e+01    2.286726e+03
  1.550818e+01    2.285961e+03
  1.556068e+01    2.281487e+03
  1.561319e+01    2.272723e+03
  1.566569e+01    2.269574e+03
  1.571820e+01    2.270676e+03
  1.577071e+01    2.269517e+03
  1.582321e+01    2.261931e+03
  1.587572e+01    2.255463e+03
  1.592822e+01    2.250049e+03
  1.598073e+01    2.242720e+03
  1.603324e+01    2.225375e+03
  1.608574e+01    2.208945e+03
  1.613825e+01    2.197572e+03
  1.619075e+01    2.200265e+03
  1.624326e+01    2.214757e+03
  1.629577e+01    2.210408e+03
  1.634827e+01    2.205971e+03
  1.640078e+01    2.201139e+03
  1.645328e+01    2.198027e+03
  1.650579e+01    2.199677e+03
  1.655830e+01    2.198880e+03
  1.661080e+01    2.194496e+03
  1.666331e+01    2.190059e+03
  1.671581e+01    2.184072e+03
  1.676832e+01    2.181123e+03
  1.682083e+01    2.177657e+03
  1.687333e+01    2.174719e+03
  1.692584e+01    2.175327e+03
  1.697834e+01    2.171009e+03
  1.703085e+01    2.165906e+03
  1.708336e+01    2.166300e+03
  1.713586e+01    2.159793e+03
  1.718837e+01    2.153111e+03
  1.724087e+01    2.147441e+03
  1.729338e+01    2.141183e+03
  1.734589e+01    2.135783e+03
  1.739839e+01    2.130252e+03
  1.745090e+01    2.128630e+03
  1.750340e+01    2.129051e+03
  1.755591e+01    2.121348e+03
  1.760842e+01    2.120032e+03
  1.766092e+01    2.114826e+03
  1.771343e+01    2.114277e+03
  1.776593e+01    2.107369e+03
  1.781844e+01    2.100947e+03
  1.787095e+01    2.096406e+03
  1.792345e+01    2.090687e+03
  1.797596e+01    2.086231e+03
  1.802846e+01    2.083530e+03
  1.808097e+01    2.075929e+03
  1.813348e+01    2.069171e+03
  1.818598e+01    2.062555e+03
  1.823849e+01    2.067496e+03
  1.829099e+01    2.056224e+03
  1.834350e+01    2.049222e+03
  1.839601e+01    2.044633e+03
  1.844851e+01    2.040031e+03
  1.850102e+01    2.037241e+03
  1.855352e+01    2.029507e+03
  1.860603e+01    2.025528e+03
  1.865854e+01    2.036252e+03
  1.871104e+01    2.042601e+03
  1.876355e+01    2.031314e+03
  1.881605e+01    2.024854e+03
  1.886856e+01    2.023893e+03
  1.892107e+01    2.018546e+03
  1.897357e+01    2.013816e+03
  1.902608e+01    2.007191e+03
  1.907858e+01    2.001941e+03
  1.913109e+01    1.993963e+03
  1.918360e+01    1.989546e+03
  1.923610e+01    1.984200e+03
  1.928861e+01    1.976571e+03
  1.934111e+01    1.972509e+03
  1.939362e+01    1.964223e+03
  1.944613e+01    1.960742e+03
  1.949863e+01    1.953693e+03
  1.955114e+01    1.945558e+03
  1.960364e+01    1.942523e+03
  1.965615e+01    1.936036e+03
  1.970866e+01    1.934461e+03
  1.976116e+01    1.926479e+03
  1.981367e+01    1.922854e+03
  1.986617e+01    1.915002e+03
  1.991868e+01    1.910555e+03
  1.997119e+01    1.906113e+03
  2.002369e+01    1.901443e+03
  2.007620e+01    1.891182e+03
  2.012870e+01    1.887232e+03
  2.018121e+01    1.882636e+03
  2.023372e+01    1.876354e+03
  2.028622e+01    1.867587e+03
  2.033873e+01    1.860103e+03
  2.039123e+01    1.854641e+03
  2.044374e+01    1.849947e+03
  2.049625e+01    1.844826e+03
  2.054875e+01    1.838209e+03
  2.060126e+01    1.832946e+03
  2.065376e+01    1.828924e+03
  2.070627e+01    1.821522e+03
  2.075878e+01    1.818015e+03
  2.081128e+01    1.825708e+03
  2.086379e+01    1.820425e+03
  2.091629e+01    1.804772e+03
  2.096880e+01    1.793055e+03
  2.102131e+01    1.785379e+03
  2.107381e+01    1.775849e+03
  2.112632e+01    1.764217e+03
  2.117882e+01    1.756379e+03
  2.123133e+01    1.745553e+03
  2.128384e+01    1.736963e+03
  2.133634e+01    1.727911e+03
  2.138885e+01    1.714836e+03
  2.144135e+01    1.709589e+03
  2.149386e+01    1.701536e+03
  2.154637e+01    1.693413e+03
  2.159887e+01    1.686417e+03
  2.165138e+01    1.676629e+03
  2.170388e+01    1.669897e+03
  2.175639e+01    1.666345e+03
  2.180890e+01    1.659259e+03
  2.186140e+01    1.648517e+03
  2.191391e+01    1.642551e+03
  2.196641e+01    1.633972e+03
  2.201892e+01    1.623702e+03
  2.207143e+01    1.614485e+03
  2.212393e+01    1.605993e+03
  2.217644e+01    1.597019e+03
  2.222894e+01    1.589099e+03
  2.228145e+01    1.581106e+03
  2.233396e+01    1.572577e+03
  2.238646e+01    1.561594e+03
  2.243897e+01    1.555377e+03
  2.249147e+01    1.546880e+03
  2.254398e+01    1.542089e+03
  2.259649e+01    1.546395e+03
  2.264899e+01    1.541764e+03
  2.270150e+01    1.543855e+03
  2.275400e+01    1.543230e+03
  2.280651e+01    1.541932e+03
  2.285902e+01    1.541105e+03
  2.291152e+01    1.541014e+03
  2.296403e+01    1.541167e+03
  2.301653e+01    1.539730e+03
  2.306904e+01    1.539129e+03
  2.312155e+01    1.534710e+03
  2.317405e+01    1.531982e+03
  2.322656e+01    1.526774e+03
  2.327906e+01    1.523248e+03
  2.333157e+01    1.523760e+03
  2.338408e+01    1.524453e+03
  2.343658e+01    1.520561e+03
  2.348909e+01    1.517595e+03
  2.354159e+01    1.513482e+03
  2.359410e+01    1.508508e+03
  2.364661e+01    1.508703e+03
  2.369911e+01    1.502270e+03
  2.375162e+01    1.497210e+03
  2.380412e+01    1.488268e+03
  2.385663e+01    1.482521e+03
  2.390914e+01    1.476407e+03
  2.396164e+01    1.471835e+03
  2.401415e+01    1.468558e+03
  2.406665e+01    1.461594e+03
  2.411916e+01    1.457042e+03
  2.417167e+01    1.446551e+03
  2.422417e+01    1.441118e+03
  2.427668e+01    1.435470e+03
  2.432918e+01    1.429620e+03
  2.438169e+01    1.422552e+03
  2.443420e+01    1.420307e+03
  2.448670e+01    1.414261e+03
  2.453921e+01    1.410172e+03
  2.459171e+01    1.406935e+03
  2.464422e+01    1.403865e+03
  2.469673e+01    1.391307e+03
  2.474923e+01    1.386214e+03
  2.480174e+01    1.376356e+03
  2.485425e+01    1.368256e+03
  2.490675e+01    1.359993e+03
  2.495926e+01    1.352351e+03
  2.501176e+01    1.343467e+03
  2.506427e+01    1.339682e+03
  2.511678e+01    1.328972e+03
  2.516928e+01    1.325317e+03
  2.522179e+01    1.317034e+03
  2.527429e+01    1.311173e+03
  2.532680e+01    1.300756e+03
  2.537931e+01    1.295492e+03
  2.543181e+01    1.282846e+03
  2.548432e+01    1.269691e+03
  2.553682e+01    1.256153e+03
  2.558933e+01    1.252430e+03
  2.564184e+01    1.244312e+03
  2.569434e+01    1.226790e+03
  2.574685e+01    1.221819e+03
  2.579935e+01    1.206563e+03
  2.585186e+01    1.197800e+03
  2.590437e+01    1.194160e+03
  2.595687e+01    1.188438e+03
  2.600938e+01    1.185181e+03
  2.606188e+01    1.183489e+03
  2.611439e+01    1.177114e+03
  2.616690e+01    1.170336e+03
  2.621940e+01    1.166022e+03
  2.627191e+01    1.150146e+03
  2.632441e+01    1.154297e+03
  2.637692e+01    1.155093e+03
  2.642943e+01    1.129457e+03
  2.648193e+01    1.098692e+03
