# == pyFAI calibration ==
# Distance Sample to Detector: 0.2945755399789714 m
# PONI: 2.880e-01, 2.450e-01 m
# Rotations: -0.007291 -0.010887 -0.000000 rad
# 
# == Fit2d calibration ==
# Distance Sample-beamCenter: 294.601 mm
# Center: x=1437.174, y=1655.617 pix
# Tilt: 0.751 deg  TiltPlanRot: -56.193 deg
# 
# Detector Pilatus CdTe 2M	 PixelSize= 1.720e-04, 1.720e-04 m
#    Detector has a mask: True 
#    Detector has a dark current: False 
#    detector has a flat field: False 
# 
# Wavelength: 2.0732883349524408e-11 m
# Mask applied: from detector
# Dark current applied: False
# Flat field applied: False
# Polarization factor: 0.9000000000000002
# Normalization factor: 1.0
# --> /gpfs/current/raw/FMue_2_third_run/FMue_2_third_20231024_085044_00020.dat
#        q_A^-1             I 
  2.814346e-01    8.165398e+04
  3.339406e-01    4.649988e+04
  3.864466e-01    3.461709e+04
  4.389526e-01    2.861081e+04
  4.914586e-01    2.467079e+04
  5.439646e-01    2.235444e+04
  5.964706e-01    2.075526e+04
  6.489766e-01    1.932913e+04
  7.014826e-01    1.826646e+04
  7.539886e-01    1.729932e+04
  8.064947e-01    1.650658e+04
  8.590007e-01    1.584044e+04
  9.115067e-01    1.534288e+04
  9.640127e-01    1.492529e+04
  1.016519e+00    1.463506e+04
  1.069025e+00    1.453334e+04
  1.121531e+00    1.461360e+04
  1.174037e+00    1.487062e+04
  1.226543e+00    1.535504e+04
  1.279049e+00    1.623805e+04
  1.331555e+00    1.737940e+04
  1.384061e+00    1.786447e+04
  1.436567e+00    1.782210e+04
  1.489073e+00    1.763157e+04
  1.541579e+00    1.716928e+04
  1.594085e+00    1.644954e+04
  1.646591e+00    1.563560e+04
  1.699097e+00    1.463379e+04
  1.751603e+00    1.368695e+04
  1.804109e+00    1.281565e+04
  1.856615e+00    1.213040e+04
  1.909121e+00    1.158876e+04
  1.961627e+00    1.118018e+04
  2.014133e+00    1.091320e+04
  2.066639e+00    1.094647e+04
  2.119145e+00    1.169563e+04
  2.171651e+00    1.315466e+04
  2.224157e+00    1.298855e+04
  2.276663e+00    1.139801e+04
  2.329169e+00    1.050879e+04
  2.381675e+00    1.031135e+04
  2.434181e+00    1.082182e+04
  2.486687e+00    1.311195e+04
  2.539193e+00    1.864854e+04
  2.591699e+00    2.023761e+04
  2.644205e+00    1.491432e+04
  2.696711e+00    1.130023e+04
  2.749217e+00    9.710330e+03
  2.801723e+00    8.455498e+03
  2.854229e+00    7.648550e+03
  2.906735e+00    7.309229e+03
  2.959241e+00    7.253250e+03
  3.011747e+00    7.698751e+03
  3.064253e+00    9.351717e+03
  3.116759e+00    1.154936e+04
  3.169265e+00    1.166664e+04
  3.221771e+00    9.872596e+03
  3.274277e+00    7.630620e+03
  3.326783e+00    6.663754e+03
  3.379289e+00    6.442414e+03
  3.431795e+00    6.333400e+03
  3.484301e+00    6.291453e+03
  3.536807e+00    6.257584e+03
  3.589313e+00    6.236424e+03
  3.641819e+00    6.333754e+03
  3.694325e+00    6.519451e+03
  3.746831e+00    7.001260e+03
  3.799337e+00    7.487971e+03
  3.851843e+00    7.398916e+03
  3.904349e+00    7.442939e+03
  3.956855e+00    8.494702e+03
  4.009361e+00    1.031893e+04
  4.061867e+00    1.052729e+04
  4.114373e+00    9.071284e+03
  4.166879e+00    8.041161e+03
  4.219385e+00    7.630139e+03
  4.271891e+00    7.828606e+03
  4.324397e+00    9.474497e+03
  4.376903e+00    1.319282e+04
  4.429409e+00    1.492597e+04
  4.481915e+00    1.403865e+04
  4.534421e+00    1.117631e+04
  4.586927e+00    8.200585e+03
  4.639433e+00    6.860026e+03
  4.691939e+00    6.410551e+03
  4.744445e+00    6.222721e+03
  4.796951e+00    6.176990e+03
  4.849457e+00    6.292730e+03
  4.901963e+00    6.435553e+03
  4.954469e+00    6.500302e+03
  5.006975e+00    6.689799e+03
  5.059481e+00    7.208937e+03
  5.111987e+00    7.475838e+03
  5.164493e+00    6.951696e+03
  5.216999e+00    6.219601e+03
  5.269505e+00    5.743371e+03
  5.322011e+00    5.567331e+03
  5.374517e+00    5.569496e+03
  5.427023e+00    5.452392e+03
  5.479529e+00    5.371837e+03
  5.532035e+00    5.138764e+03
  5.584541e+00    4.772884e+03
  5.637047e+00    4.588753e+03
  5.689553e+00    4.564633e+03
  5.742059e+00    4.715770e+03
  5.794565e+00    4.946455e+03
  5.847071e+00    5.106324e+03
  5.899577e+00    5.422101e+03
  5.952083e+00    5.886818e+03
  6.004589e+00    5.690427e+03
  6.057095e+00    5.142007e+03
  6.109601e+00    4.902935e+03
  6.162107e+00    4.929834e+03
  6.214613e+00    5.024102e+03
  6.267119e+00    4.937439e+03
  6.319625e+00    4.776082e+03
  6.372131e+00    4.626464e+03
  6.424637e+00    4.458289e+03
  6.477143e+00    4.317530e+03
  6.529649e+00    4.329697e+03
  6.582155e+00    4.432786e+03
  6.634661e+00    4.586455e+03
  6.687167e+00    4.835254e+03
  6.739673e+00    4.982772e+03
  6.792179e+00    4.688551e+03
  6.844685e+00    4.324768e+03
  6.897191e+00    4.165197e+03
  6.949697e+00    4.212775e+03
  7.002203e+00    4.155880e+03
  7.054709e+00    4.119803e+03
  7.107215e+00    4.062280e+03
  7.159721e+00    3.961336e+03
  7.212227e+00    3.883792e+03
  7.264733e+00    3.890533e+03
  7.317239e+00    4.005078e+03
  7.369745e+00    4.183103e+03
  7.422251e+00    4.265053e+03
  7.474757e+00    4.210750e+03
  7.527263e+00    4.301474e+03
  7.579769e+00    4.618243e+03
  7.632275e+00    4.694203e+03
  7.684781e+00    4.499201e+03
  7.737287e+00    4.484248e+03
  7.789793e+00    4.432733e+03
  7.842299e+00    4.216736e+03
  7.894805e+00    4.120933e+03
  7.947311e+00    4.101224e+03
  7.999817e+00    4.197528e+03
  8.052323e+00    4.180109e+03
  8.104829e+00    3.987816e+03
  8.157335e+00    3.792864e+03
  8.209841e+00    3.684505e+03
  8.262347e+00    3.628833e+03
  8.314853e+00    3.577769e+03
  8.367359e+00    3.535005e+03
  8.419865e+00    3.517570e+03
  8.472371e+00    3.524825e+03
  8.524877e+00    3.532797e+03
  8.577383e+00    3.561941e+03
  8.629889e+00    3.546717e+03
  8.682395e+00    3.504243e+03
  8.734901e+00    3.530937e+03
  8.787407e+00    3.558403e+03
  8.839913e+00    3.507399e+03
  8.892419e+00    3.456585e+03
  8.944925e+00    3.454891e+03
  8.997431e+00    3.454833e+03
  9.049937e+00    3.441049e+03
  9.102443e+00    3.465833e+03
  9.154949e+00    3.488480e+03
  9.207455e+00    3.416860e+03
  9.259961e+00    3.314934e+03
  9.312467e+00    3.250216e+03
  9.364973e+00    3.198052e+03
  9.417480e+00    3.156382e+03
  9.469986e+00    3.176965e+03
  9.522492e+00    3.214599e+03
  9.574998e+00    3.253854e+03
  9.627504e+00    3.290210e+03
  9.680010e+00    3.291664e+03
  9.732516e+00    3.262155e+03
  9.785022e+00    3.248646e+03
  9.837528e+00    3.233563e+03
  9.890034e+00    3.180892e+03
  9.942540e+00    3.138864e+03
  9.995046e+00    3.137108e+03
  1.004755e+01    3.154701e+03
  1.010006e+01    3.158337e+03
  1.015256e+01    3.148813e+03
  1.020507e+01    3.073952e+03
  1.025758e+01    2.983260e+03
  1.031008e+01    2.944788e+03
  1.036259e+01    2.950573e+03
  1.041509e+01    2.933260e+03
  1.046760e+01    2.929984e+03
  1.052011e+01    2.942537e+03
  1.057261e+01    2.950833e+03
  1.062512e+01    2.941730e+03
  1.067762e+01    2.914589e+03
  1.073013e+01    2.890150e+03
  1.078264e+01    2.876774e+03
  1.083514e+01    2.856003e+03
  1.088765e+01    2.858744e+03
  1.094015e+01    2.884536e+03
  1.099266e+01    2.924383e+03
  1.104517e+01    2.938955e+03
  1.109767e+01    2.912615e+03
  1.115018e+01    2.854140e+03
  1.120268e+01    2.816341e+03
  1.125519e+01    2.790518e+03
  1.130770e+01    2.785981e+03
  1.136020e+01    2.790008e+03
  1.141271e+01    2.822997e+03
  1.146521e+01    2.844399e+03
  1.151772e+01    2.863643e+03
  1.157023e+01    2.877418e+03
  1.162273e+01    2.876344e+03
  1.167524e+01    2.832910e+03
  1.172774e+01    2.819141e+03
  1.178025e+01    2.793785e+03
  1.183276e+01    2.798347e+03
  1.188526e+01    2.792407e+03
  1.193777e+01    2.765511e+03
  1.199027e+01    2.713658e+03
  1.204278e+01    2.678568e+03
  1.209529e+01    2.669065e+03
  1.214779e+01    2.674882e+03
  1.220030e+01    2.695535e+03
  1.225280e+01    2.713923e+03
  1.230531e+01    2.713142e+03
  1.235782e+01    2.685196e+03
  1.241032e+01    2.657405e+03
  1.246283e+01    2.642876e+03
  1.251533e+01    2.632504e+03
  1.256784e+01    2.637786e+03
  1.262035e+01    2.638053e+03
  1.267285e+01    2.627893e+03
  1.272536e+01    2.613584e+03
  1.277786e+01    2.596859e+03
  1.283037e+01    2.580096e+03
  1.288288e+01    2.571744e+03
  1.293538e+01    2.560782e+03
  1.298789e+01    2.561446e+03
  1.304039e+01    2.563664e+03
  1.309290e+01    2.569784e+03
  1.314541e+01    2.569662e+03
  1.319791e+01    2.554933e+03
  1.325042e+01    2.535411e+03
  1.330292e+01    2.538489e+03
  1.335543e+01    2.553251e+03
  1.340794e+01    2.566257e+03
  1.346044e+01    2.576615e+03
  1.351295e+01    2.537923e+03
  1.356545e+01    2.508999e+03
  1.361796e+01    2.491791e+03
  1.367047e+01    2.488583e+03
  1.372297e+01    2.490406e+03
  1.377548e+01    2.483447e+03
  1.382798e+01    2.469861e+03
  1.388049e+01    2.451139e+03
  1.393300e+01    2.436452e+03
  1.398550e+01    2.429594e+03
  1.403801e+01    2.428751e+03
  1.409051e+01    2.423862e+03
  1.414302e+01    2.414778e+03
  1.419553e+01    2.406185e+03
  1.424803e+01    2.391393e+03
  1.430054e+01    2.377898e+03
  1.435304e+01    2.376171e+03
  1.440555e+01    2.370230e+03
  1.445806e+01    2.368155e+03
  1.451056e+01    2.360934e+03
  1.456307e+01    2.349719e+03
  1.461557e+01    2.340578e+03
  1.466808e+01    2.335266e+03
  1.472059e+01    2.336280e+03
  1.477309e+01    2.338351e+03
  1.482560e+01    2.330579e+03
  1.487810e+01    2.316070e+03
  1.493061e+01    2.306119e+03
  1.498312e+01    2.298318e+03
  1.503562e+01    2.297394e+03
  1.508813e+01    2.298353e+03
  1.514063e+01    2.302016e+03
  1.519314e+01    2.314439e+03
  1.524565e+01    2.343359e+03
  1.529815e+01    2.323788e+03
  1.535066e+01    2.319108e+03
  1.540316e+01    2.315023e+03
  1.545567e+01    2.301027e+03
  1.550818e+01    2.301041e+03
  1.556068e+01    2.291517e+03
  1.561319e+01    2.283958e+03
  1.566569e+01    2.282877e+03
  1.571820e+01    2.285023e+03
  1.577071e+01    2.284584e+03
  1.582321e+01    2.279432e+03
  1.587572e+01    2.271856e+03
  1.592822e+01    2.262859e+03
  1.598073e+01    2.254851e+03
  1.603324e+01    2.238574e+03
  1.608574e+01    2.220848e+03
  1.613825e+01    2.208310e+03
  1.619075e+01    2.208084e+03
  1.624326e+01    2.224159e+03
  1.629577e+01    2.220949e+03
  1.634827e+01    2.213636e+03
  1.640078e+01    2.210998e+03
  1.645328e+01    2.206157e+03
  1.650579e+01    2.206911e+03
  1.655830e+01    2.208751e+03
  1.661080e+01    2.206039e+03
  1.666331e+01    2.203851e+03
  1.671581e+01    2.196095e+03
  1.676832e+01    2.191164e+03
  1.682083e+01    2.186977e+03
  1.687333e+01    2.185960e+03
  1.692584e+01    2.187065e+03
  1.697834e+01    2.182169e+03
  1.703085e+01    2.177853e+03
  1.708336e+01    2.178372e+03
  1.713586e+01    2.173895e+03
  1.718837e+01    2.170203e+03
  1.724087e+01    2.161684e+03
  1.729338e+01    2.154024e+03
  1.734589e+01    2.146957e+03
  1.739839e+01    2.139537e+03
  1.745090e+01    2.139489e+03
  1.750340e+01    2.138094e+03
  1.755591e+01    2.132667e+03
  1.760842e+01    2.130296e+03
  1.766092e+01    2.124938e+03
  1.771343e+01    2.126376e+03
  1.776593e+01    2.120533e+03
  1.781844e+01    2.114258e+03
  1.787095e+01    2.108938e+03
  1.792345e+01    2.104250e+03
  1.797596e+01    2.100376e+03
  1.802846e+01    2.097984e+03
  1.808097e+01    2.089081e+03
  1.813348e+01    2.084225e+03
  1.818598e+01    2.075905e+03
  1.823849e+01    2.078917e+03
  1.829099e+01    2.067975e+03
  1.834350e+01    2.062057e+03
  1.839601e+01    2.056644e+03
  1.844851e+01    2.052283e+03
  1.850102e+01    2.051474e+03
  1.855352e+01    2.041669e+03
  1.860603e+01    2.038673e+03
  1.865854e+01    2.049142e+03
  1.871104e+01    2.056280e+03
  1.876355e+01    2.047005e+03
  1.881605e+01    2.041829e+03
  1.886856e+01    2.040139e+03
  1.892107e+01    2.035584e+03
  1.897357e+01    2.031025e+03
  1.902608e+01    2.025157e+03
  1.907858e+01    2.019607e+03
  1.913109e+01    2.014958e+03
  1.918360e+01    2.008626e+03
  1.923610e+01    2.004771e+03
  1.928861e+01    1.996449e+03
  1.934111e+01    1.994060e+03
  1.939362e+01    1.983175e+03
  1.944613e+01    1.980550e+03
  1.949863e+01    1.974023e+03
  1.955114e+01    1.967822e+03
  1.960364e+01    1.962849e+03
  1.965615e+01    1.957944e+03
  1.970866e+01    1.954895e+03
  1.976116e+01    1.947930e+03
  1.981367e+01    1.944784e+03
  1.986617e+01    1.937266e+03
  1.991868e+01    1.930695e+03
  1.997119e+01    1.926969e+03
  2.002369e+01    1.921784e+03
  2.007620e+01    1.915760e+03
  2.012870e+01    1.909937e+03
  2.018121e+01    1.904314e+03
  2.023372e+01    1.898281e+03
  2.028622e+01    1.888925e+03
  2.033873e+01    1.882261e+03
  2.039123e+01    1.876002e+03
  2.044374e+01    1.871839e+03
  2.049625e+01    1.866896e+03
  2.054875e+01    1.859201e+03
  2.060126e+01    1.855130e+03
  2.065376e+01    1.850963e+03
  2.070627e+01    1.844554e+03
  2.075878e+01    1.839384e+03
  2.081128e+01    1.848519e+03
  2.086379e+01    1.842306e+03
  2.091629e+01    1.827989e+03
  2.096880e+01    1.815077e+03
  2.102131e+01    1.808314e+03
  2.107381e+01    1.798886e+03
  2.112632e+01    1.786873e+03
  2.117882e+01    1.778239e+03
  2.123133e+01    1.767562e+03
  2.128384e+01    1.758482e+03
  2.133634e+01    1.749053e+03
  2.138885e+01    1.735948e+03
  2.144135e+01    1.729607e+03
  2.149386e+01    1.722646e+03
  2.154637e+01    1.715524e+03
  2.159887e+01    1.706149e+03
  2.165138e+01    1.697818e+03
  2.170388e+01    1.691783e+03
  2.175639e+01    1.688399e+03
  2.180890e+01    1.680187e+03
  2.186140e+01    1.670175e+03
  2.191391e+01    1.662456e+03
  2.196641e+01    1.655378e+03
  2.201892e+01    1.646031e+03
  2.207143e+01    1.634968e+03
  2.212393e+01    1.627724e+03
  2.217644e+01    1.616000e+03
  2.222894e+01    1.609922e+03
  2.228145e+01    1.601908e+03
  2.233396e+01    1.593660e+03
  2.238646e+01    1.584061e+03
  2.243897e+01    1.577420e+03
  2.249147e+01    1.567549e+03
  2.254398e+01    1.564629e+03
  2.259649e+01    1.567133e+03
  2.264899e+01    1.563028e+03
  2.270150e+01    1.563381e+03
  2.275400e+01    1.563949e+03
  2.280651e+01    1.563785e+03
  2.285902e+01    1.564641e+03
  2.291152e+01    1.564977e+03
  2.296403e+01    1.571700e+03
  2.301653e+01    1.562084e+03
  2.306904e+01    1.560908e+03
  2.312155e+01    1.558849e+03
  2.317405e+01    1.554494e+03
  2.322656e+01    1.552933e+03
  2.327906e+01    1.547807e+03
  2.333157e+01    1.546711e+03
  2.338408e+01    1.546940e+03
  2.343658e+01    1.544486e+03
  2.348909e+01    1.543074e+03
  2.354159e+01    1.536903e+03
  2.359410e+01    1.535225e+03
  2.364661e+01    1.533585e+03
  2.369911e+01    1.527680e+03
  2.375162e+01    1.520083e+03
  2.380412e+01    1.514917e+03
  2.385663e+01    1.507523e+03
  2.390914e+01    1.501990e+03
  2.396164e+01    1.496058e+03
  2.401415e+01    1.491696e+03
  2.406665e+01    1.486444e+03
  2.411916e+01    1.481037e+03
  2.417167e+01    1.474538e+03
  2.422417e+01    1.468620e+03
  2.427668e+01    1.459645e+03
  2.432918e+01    1.455945e+03
  2.438169e+01    1.447149e+03
  2.443420e+01    1.444490e+03
  2.448670e+01    1.439659e+03
  2.453921e+01    1.432683e+03
  2.459171e+01    1.428708e+03
  2.464422e+01    1.428229e+03
  2.469673e+01    1.418140e+03
  2.474923e+01    1.411783e+03
  2.480174e+01    1.403334e+03
  2.485425e+01    1.395897e+03
  2.490675e+01    1.386881e+03
  2.495926e+01    1.378480e+03
  2.501176e+01    1.369151e+03
  2.506427e+01    1.359586e+03
  2.511678e+01    1.352177e+03
  2.516928e+01    1.347484e+03
  2.522179e+01    1.342891e+03
  2.527429e+01    1.333857e+03
  2.532680e+01    1.325954e+03
  2.537931e+01    1.317125e+03
  2.543181e+01    1.306584e+03
  2.548432e+01    1.295816e+03
  2.553682e+01    1.284181e+03
  2.558933e+01    1.281548e+03
  2.564184e+01    1.269668e+03
  2.569434e+01    1.253753e+03
  2.574685e+01    1.244908e+03
  2.579935e+01    1.233999e+03
  2.585186e+01    1.223167e+03
  2.590437e+01    1.214857e+03
  2.595687e+01    1.210041e+03
  2.600938e+01    1.205772e+03
  2.606188e+01    1.205141e+03
  2.611439e+01    1.201206e+03
  2.616690e+01    1.195719e+03
  2.621940e+01    1.187766e+03
  2.627191e+01    1.171228e+03
  2.632441e+01    1.177030e+03
  2.637692e+01    1.168785e+03
  2.642943e+01    1.154490e+03
  2.648193e+01    1.118508e+03
