# == pyFAI calibration ==
# Distance Sample to Detector: 0.2945755399789714 m
# PONI: 2.880e-01, 2.450e-01 m
# Rotations: -0.007291 -0.010887 -0.000000 rad
# 
# == Fit2d calibration ==
# Distance Sample-beamCenter: 294.601 mm
# Center: x=1437.174, y=1655.617 pix
# Tilt: 0.751 deg  TiltPlanRot: -56.193 deg
# 
# Detector Pilatus CdTe 2M	 PixelSize= 1.720e-04, 1.720e-04 m
#    Detector has a mask: True 
#    Detector has a dark current: False 
#    detector has a flat field: False 
# 
# Wavelength: 2.0732883349524408e-11 m
# Mask applied: from detector
# Dark current applied: False
# Flat field applied: False
# Polarization factor: 0.9000000000000002
# Normalization factor: 1.0
# --> /gpfs/current/raw/FMue_2_third_run/FMue_2_third_20231024_085044_00030.dat
#        q_A^-1             I 
  2.814346e-01    8.154958e+04
  3.339406e-01    4.651435e+04
  3.864466e-01    3.465275e+04
  4.389526e-01    2.862939e+04
  4.914586e-01    2.469534e+04
  5.439646e-01    2.238373e+04
  5.964706e-01    2.074523e+04
  6.489766e-01    1.931441e+04
  7.014826e-01    1.823465e+04
  7.539886e-01    1.727967e+04
  8.064947e-01    1.648349e+04
  8.590007e-01    1.581834e+04
  9.115067e-01    1.531535e+04
  9.640127e-01    1.488315e+04
  1.016519e+00    1.459494e+04
  1.069025e+00    1.450177e+04
  1.121531e+00    1.460456e+04
  1.174037e+00    1.483440e+04
  1.226543e+00    1.531836e+04
  1.279049e+00    1.620987e+04
  1.331555e+00    1.734821e+04
  1.384061e+00    1.781370e+04
  1.436567e+00    1.777486e+04
  1.489073e+00    1.759340e+04
  1.541579e+00    1.713872e+04
  1.594085e+00    1.640861e+04
  1.646591e+00    1.558584e+04
  1.699097e+00    1.459015e+04
  1.751603e+00    1.364279e+04
  1.804109e+00    1.279087e+04
  1.856615e+00    1.209099e+04
  1.909121e+00    1.156688e+04
  1.961627e+00    1.115499e+04
  2.014133e+00    1.088949e+04
  2.066639e+00    1.092338e+04
  2.119145e+00    1.168678e+04
  2.171651e+00    1.313019e+04
  2.224157e+00    1.291800e+04
  2.276663e+00    1.133828e+04
  2.329169e+00    1.046850e+04
  2.381675e+00    1.028297e+04
  2.434181e+00    1.081593e+04
  2.486687e+00    1.316046e+04
  2.539193e+00    1.869368e+04
  2.591699e+00    2.008051e+04
  2.644205e+00    1.475031e+04
  2.696711e+00    1.123401e+04
  2.749217e+00    9.658854e+03
  2.801723e+00    8.421758e+03
  2.854229e+00    7.630177e+03
  2.906735e+00    7.302199e+03
  2.959241e+00    7.251858e+03
  3.011747e+00    7.713820e+03
  3.064253e+00    9.387925e+03
  3.116759e+00    1.153277e+04
  3.169265e+00    1.158364e+04
  3.221771e+00    9.768070e+03
  3.274277e+00    7.573434e+03
  3.326783e+00    6.660351e+03
  3.379289e+00    6.440667e+03
  3.431795e+00    6.337972e+03
  3.484301e+00    6.290622e+03
  3.536807e+00    6.260609e+03
  3.589313e+00    6.244508e+03
  3.641819e+00    6.335554e+03
  3.694325e+00    6.533111e+03
  3.746831e+00    7.009637e+03
  3.799337e+00    7.483460e+03
  3.851843e+00    7.386939e+03
  3.904349e+00    7.457945e+03
  3.956855e+00    8.526202e+03
  4.009361e+00    1.032304e+04
  4.061867e+00    1.044113e+04
  4.114373e+00    9.001054e+03
  4.166879e+00    8.010099e+03
  4.219385e+00    7.624937e+03
  4.271891e+00    7.858587e+03
  4.324397e+00    9.556844e+03
  4.376903e+00    1.324248e+04
  4.429409e+00    1.483060e+04
  4.481915e+00    1.388306e+04
  4.534421e+00    1.099120e+04
  4.586927e+00    8.122294e+03
  4.639433e+00    6.852945e+03
  4.691939e+00    6.414253e+03
  4.744445e+00    6.233884e+03
  4.796951e+00    6.193557e+03
  4.849457e+00    6.306812e+03
  4.901963e+00    6.443546e+03
  4.954469e+00    6.500964e+03
  5.006975e+00    6.699770e+03
  5.059481e+00    7.226050e+03
  5.111987e+00    7.448412e+03
  5.164493e+00    6.912385e+03
  5.216999e+00    6.188942e+03
  5.269505e+00    5.737915e+03
  5.322011e+00    5.571514e+03
  5.374517e+00    5.573445e+03
  5.427023e+00    5.450641e+03
  5.479529e+00    5.371905e+03
  5.532035e+00    5.125836e+03
  5.584541e+00    4.766536e+03
  5.637047e+00    4.591213e+03
  5.689553e+00    4.577692e+03
  5.742059e+00    4.726556e+03
  5.794565e+00    4.944439e+03
  5.847071e+00    5.100231e+03
  5.899577e+00    5.422048e+03
  5.952083e+00    5.868407e+03
  6.004589e+00    5.639406e+03
  6.057095e+00    5.109100e+03
  6.109601e+00    4.890502e+03
  6.162107e+00    4.926609e+03
  6.214613e+00    5.009490e+03
  6.267119e+00    4.919014e+03
  6.319625e+00    4.756808e+03
  6.372131e+00    4.612171e+03
  6.424637e+00    4.448661e+03
  6.477143e+00    4.314929e+03
  6.529649e+00    4.333484e+03
  6.582155e+00    4.436035e+03
  6.634661e+00    4.586371e+03
  6.687167e+00    4.834744e+03
  6.739673e+00    4.957905e+03
  6.792179e+00    4.654289e+03
  6.844685e+00    4.305899e+03
  6.897191e+00    4.158993e+03
  6.949697e+00    4.209241e+03
  7.002203e+00    4.153089e+03
  7.054709e+00    4.118106e+03
  7.107215e+00    4.054344e+03
  7.159721e+00    3.961949e+03
  7.212227e+00    3.884004e+03
  7.264733e+00    3.895963e+03
  7.317239e+00    4.014229e+03
  7.369745e+00    4.187352e+03
  7.422251e+00    4.254490e+03
  7.474757e+00    4.201859e+03
  7.527263e+00    4.308193e+03
  7.579769e+00    4.611111e+03
  7.632275e+00    4.656175e+03
  7.684781e+00    4.472706e+03
  7.737287e+00    4.463906e+03
  7.789793e+00    4.397291e+03
  7.842299e+00    4.191029e+03
  7.894805e+00    4.108192e+03
  7.947311e+00    4.094373e+03
  7.999817e+00    4.184569e+03
  8.052323e+00    4.158345e+03
  8.104829e+00    3.962926e+03
  8.157335e+00    3.782453e+03
  8.209841e+00    3.679899e+03
  8.262347e+00    3.628664e+03
  8.314853e+00    3.576920e+03
  8.367359e+00    3.538180e+03
  8.419865e+00    3.519223e+03
  8.472371e+00    3.527674e+03
  8.524877e+00    3.534238e+03
  8.577383e+00    3.557163e+03
  8.629889e+00    3.541912e+03
  8.682395e+00    3.505730e+03
  8.734901e+00    3.529405e+03
  8.787407e+00    3.552634e+03
  8.839913e+00    3.498323e+03
  8.892419e+00    3.453383e+03
  8.944925e+00    3.449945e+03
  8.997431e+00    3.450699e+03
  9.049937e+00    3.435904e+03
  9.102443e+00    3.459536e+03
  9.154949e+00    3.476075e+03
  9.207455e+00    3.401986e+03
  9.259961e+00    3.304204e+03
  9.312467e+00    3.244747e+03
  9.364973e+00    3.194240e+03
  9.417480e+00    3.159807e+03
  9.469986e+00    3.175846e+03
  9.522492e+00    3.210714e+03
  9.574998e+00    3.244604e+03
  9.627504e+00    3.279577e+03
  9.680010e+00    3.278577e+03
  9.732516e+00    3.249786e+03
  9.785022e+00    3.236308e+03
  9.837528e+00    3.219581e+03
  9.890034e+00    3.166626e+03
  9.942540e+00    3.127007e+03
  9.995046e+00    3.129643e+03
  1.004755e+01    3.147664e+03
  1.010006e+01    3.144471e+03
  1.015256e+01    3.131067e+03
  1.020507e+01    3.057526e+03
  1.025758e+01    2.976119e+03
  1.031008e+01    2.939050e+03
  1.036259e+01    2.946667e+03
  1.041509e+01    2.930745e+03
  1.046760e+01    2.927062e+03
  1.052011e+01    2.941722e+03
  1.057261e+01    2.943311e+03
  1.062512e+01    2.935252e+03
  1.067762e+01    2.907993e+03
  1.073013e+01    2.886447e+03
  1.078264e+01    2.875894e+03
  1.083514e+01    2.852609e+03
  1.088765e+01    2.855208e+03
  1.094015e+01    2.882239e+03
  1.099266e+01    2.919154e+03
  1.104517e+01    2.928781e+03
  1.109767e+01    2.900302e+03
  1.115018e+01    2.845444e+03
  1.120268e+01    2.812776e+03
  1.125519e+01    2.791569e+03
  1.130770e+01    2.783154e+03
  1.136020e+01    2.790755e+03
  1.141271e+01    2.816514e+03
  1.146521e+01    2.838250e+03
  1.151772e+01    2.855393e+03
  1.157023e+01    2.867989e+03
  1.162273e+01    2.865302e+03
  1.167524e+01    2.819261e+03
  1.172774e+01    2.810076e+03
  1.178025e+01    2.786920e+03
  1.183276e+01    2.790349e+03
  1.188526e+01    2.780810e+03
  1.193777e+01    2.751794e+03
  1.199027e+01    2.706911e+03
  1.204278e+01    2.675299e+03
  1.209529e+01    2.667952e+03
  1.214779e+01    2.675365e+03
  1.220030e+01    2.693078e+03
  1.225280e+01    2.708856e+03
  1.230531e+01    2.704819e+03
  1.235782e+01    2.677831e+03
  1.241032e+01    2.653933e+03
  1.246283e+01    2.639679e+03
  1.251533e+01    2.628020e+03
  1.256784e+01    2.635103e+03
  1.262035e+01    2.631819e+03
  1.267285e+01    2.624679e+03
  1.272536e+01    2.607874e+03
  1.277786e+01    2.592619e+03
  1.283037e+01    2.576710e+03
  1.288288e+01    2.569077e+03
  1.293538e+01    2.557039e+03
  1.298789e+01    2.558190e+03
  1.304039e+01    2.558934e+03
  1.309290e+01    2.563620e+03
  1.314541e+01    2.561549e+03
  1.319791e+01    2.547149e+03
  1.325042e+01    2.530803e+03
  1.330292e+01    2.532454e+03
  1.335543e+01    2.545400e+03
  1.340794e+01    2.553602e+03
  1.346044e+01    2.565086e+03
  1.351295e+01    2.526689e+03
  1.356545e+01    2.499687e+03
  1.361796e+01    2.484504e+03
  1.367047e+01    2.482548e+03
  1.372297e+01    2.482420e+03
  1.377548e+01    2.474282e+03
  1.382798e+01    2.460347e+03
  1.388049e+01    2.445900e+03
  1.393300e+01    2.429656e+03
  1.398550e+01    2.424130e+03
  1.403801e+01    2.421614e+03
  1.409051e+01    2.417956e+03
  1.414302e+01    2.408693e+03
  1.419553e+01    2.398694e+03
  1.424803e+01    2.384304e+03
  1.430054e+01    2.374551e+03
  1.435304e+01    2.368906e+03
  1.440555e+01    2.364905e+03
  1.445806e+01    2.363464e+03
  1.451056e+01    2.352564e+03
  1.456307e+01    2.343151e+03
  1.461557e+01    2.335870e+03
  1.466808e+01    2.330375e+03
  1.472059e+01    2.328751e+03
  1.477309e+01    2.331225e+03
  1.482560e+01    2.323540e+03
  1.487810e+01    2.310317e+03
  1.493061e+01    2.300204e+03
  1.498312e+01    2.294593e+03
  1.503562e+01    2.294509e+03
  1.508813e+01    2.293074e+03
  1.514063e+01    2.293813e+03
  1.519314e+01    2.309292e+03
  1.524565e+01    2.338037e+03
  1.529815e+01    2.317274e+03
  1.535066e+01    2.310623e+03
  1.540316e+01    2.305996e+03
  1.545567e+01    2.292482e+03
  1.550818e+01    2.293372e+03
  1.556068e+01    2.286514e+03
  1.561319e+01    2.278233e+03
  1.566569e+01    2.277241e+03
  1.571820e+01    2.278790e+03
  1.577071e+01    2.276143e+03
  1.582321e+01    2.270705e+03
  1.587572e+01    2.264097e+03
  1.592822e+01    2.256111e+03
  1.598073e+01    2.248304e+03
  1.603324e+01    2.231238e+03
  1.608574e+01    2.215581e+03
  1.613825e+01    2.203639e+03
  1.619075e+01    2.203293e+03
  1.624326e+01    2.220067e+03
  1.629577e+01    2.214701e+03
  1.634827e+01    2.208796e+03
  1.640078e+01    2.205753e+03
  1.645328e+01    2.202575e+03
  1.650579e+01    2.202247e+03
  1.655830e+01    2.204183e+03
  1.661080e+01    2.199629e+03
  1.666331e+01    2.195765e+03
  1.671581e+01    2.190878e+03
  1.676832e+01    2.187518e+03
  1.682083e+01    2.180645e+03
  1.687333e+01    2.180442e+03
  1.692584e+01    2.180908e+03
  1.697834e+01    2.176994e+03
  1.703085e+01    2.171014e+03
  1.708336e+01    2.170876e+03
  1.713586e+01    2.165631e+03
  1.718837e+01    2.161821e+03
  1.724087e+01    2.154306e+03
  1.729338e+01    2.146839e+03
  1.734589e+01    2.140612e+03
  1.739839e+01    2.134881e+03
  1.745090e+01    2.133138e+03
  1.750340e+01    2.133113e+03
  1.755591e+01    2.127429e+03
  1.760842e+01    2.124663e+03
  1.766092e+01    2.120569e+03
  1.771343e+01    2.120987e+03
  1.776593e+01    2.113756e+03
  1.781844e+01    2.107077e+03
  1.787095e+01    2.102034e+03
  1.792345e+01    2.097627e+03
  1.797596e+01    2.093227e+03
  1.802846e+01    2.090499e+03
  1.808097e+01    2.083038e+03
  1.813348e+01    2.075770e+03
  1.818598e+01    2.070136e+03
  1.823849e+01    2.071753e+03
  1.829099e+01    2.063519e+03
  1.834350e+01    2.057263e+03
  1.839601e+01    2.052510e+03
  1.844851e+01    2.045782e+03
  1.850102e+01    2.044137e+03
  1.855352e+01    2.036374e+03
  1.860603e+01    2.033136e+03
  1.865854e+01    2.044266e+03
  1.871104e+01    2.049488e+03
  1.876355e+01    2.038198e+03
  1.881605e+01    2.034731e+03
  1.886856e+01    2.032794e+03
  1.892107e+01    2.028131e+03
  1.897357e+01    2.022692e+03
  1.902608e+01    2.017365e+03
  1.907858e+01    2.010951e+03
  1.913109e+01    2.004881e+03
  1.918360e+01    2.001025e+03
  1.923610e+01    1.993623e+03
  1.928861e+01    1.986400e+03
  1.934111e+01    1.983433e+03
  1.939362e+01    1.974770e+03
  1.944613e+01    1.970553e+03
  1.949863e+01    1.963787e+03
  1.955114e+01    1.958050e+03
  1.960364e+01    1.954863e+03
  1.965615e+01    1.947044e+03
  1.970866e+01    1.944175e+03
  1.976116e+01    1.938226e+03
  1.981367e+01    1.933282e+03
  1.986617e+01    1.927864e+03
  1.991868e+01    1.919400e+03
  1.997119e+01    1.916404e+03
  2.002369e+01    1.911604e+03
  2.007620e+01    1.904352e+03
  2.012870e+01    1.899415e+03
  2.018121e+01    1.893388e+03
  2.023372e+01    1.886718e+03
  2.028622e+01    1.879186e+03
  2.033873e+01    1.870858e+03
  2.039123e+01    1.865864e+03
  2.044374e+01    1.861269e+03
  2.049625e+01    1.856024e+03
  2.054875e+01    1.848935e+03
  2.060126e+01    1.845059e+03
  2.065376e+01    1.840032e+03
  2.070627e+01    1.834355e+03
  2.075878e+01    1.829526e+03
  2.081128e+01    1.837494e+03
  2.086379e+01    1.831410e+03
  2.091629e+01    1.816899e+03
  2.096880e+01    1.805740e+03
  2.102131e+01    1.796499e+03
  2.107381e+01    1.789224e+03
  2.112632e+01    1.775627e+03
  2.117882e+01    1.768956e+03
  2.123133e+01    1.756178e+03
  2.128384e+01    1.747961e+03
  2.133634e+01    1.740447e+03
  2.138885e+01    1.727050e+03
  2.144135e+01    1.719748e+03
  2.149386e+01    1.710395e+03
  2.154637e+01    1.704921e+03
  2.159887e+01    1.699010e+03
  2.165138e+01    1.688164e+03
  2.170388e+01    1.681393e+03
  2.175639e+01    1.678381e+03
  2.180890e+01    1.668534e+03
  2.186140e+01    1.659131e+03
  2.191391e+01    1.652983e+03
  2.196641e+01    1.644505e+03
  2.201892e+01    1.634724e+03
  2.207143e+01    1.624464e+03
  2.212393e+01    1.616654e+03
  2.217644e+01    1.606998e+03
  2.222894e+01    1.600660e+03
  2.228145e+01    1.592048e+03
  2.233396e+01    1.583195e+03
  2.238646e+01    1.573885e+03
  2.243897e+01    1.567160e+03
  2.249147e+01    1.558509e+03
  2.254398e+01    1.553039e+03
  2.259649e+01    1.556700e+03
  2.264899e+01    1.553458e+03
  2.270150e+01    1.553521e+03
  2.275400e+01    1.555417e+03
  2.280651e+01    1.551953e+03
  2.285902e+01    1.552854e+03
  2.291152e+01    1.554434e+03
  2.296403e+01    1.552186e+03
  2.301653e+01    1.551286e+03
  2.306904e+01    1.551385e+03
  2.312155e+01    1.547360e+03
  2.317405e+01    1.544071e+03
  2.322656e+01    1.539906e+03
  2.327906e+01    1.536652e+03
  2.333157e+01    1.534741e+03
  2.338408e+01    1.535747e+03
  2.343658e+01    1.534426e+03
  2.348909e+01    1.529946e+03
  2.354159e+01    1.528753e+03
  2.359410e+01    1.523154e+03
  2.364661e+01    1.522037e+03
  2.369911e+01    1.515911e+03
  2.375162e+01    1.509346e+03
  2.380412e+01    1.499123e+03
  2.385663e+01    1.493352e+03
  2.390914e+01    1.489094e+03
  2.396164e+01    1.482958e+03
  2.401415e+01    1.480854e+03
  2.406665e+01    1.474343e+03
  2.411916e+01    1.468619e+03
  2.417167e+01    1.460307e+03
  2.422417e+01    1.455690e+03
  2.427668e+01    1.447909e+03
  2.432918e+01    1.442935e+03
  2.438169e+01    1.435556e+03
  2.443420e+01    1.430096e+03
  2.448670e+01    1.428898e+03
  2.453921e+01    1.420186e+03
  2.459171e+01    1.417770e+03
  2.464422e+01    1.414850e+03
  2.469673e+01    1.403310e+03
  2.474923e+01    1.396096e+03
  2.480174e+01    1.390230e+03
  2.485425e+01    1.382235e+03
  2.490675e+01    1.371176e+03
  2.495926e+01    1.366161e+03
  2.501176e+01    1.355644e+03
  2.506427e+01    1.347722e+03
  2.511678e+01    1.340506e+03
  2.516928e+01    1.332866e+03
  2.522179e+01    1.330154e+03
  2.527429e+01    1.319843e+03
  2.532680e+01    1.309125e+03
  2.537931e+01    1.303862e+03
  2.543181e+01    1.295143e+03
  2.548432e+01    1.282824e+03
  2.553682e+01    1.268371e+03
  2.558933e+01    1.266994e+03
  2.564184e+01    1.254862e+03
  2.569434e+01    1.240138e+03
  2.574685e+01    1.231817e+03
  2.579935e+01    1.218758e+03
  2.585186e+01    1.207724e+03
  2.590437e+01    1.204587e+03
  2.595687e+01    1.197216e+03
  2.600938e+01    1.196505e+03
  2.606188e+01    1.186530e+03
  2.611439e+01    1.186803e+03
  2.616690e+01    1.180649e+03
  2.621940e+01    1.175099e+03
  2.627191e+01    1.165521e+03
  2.632441e+01    1.161365e+03
  2.637692e+01    1.153893e+03
  2.642943e+01    1.135595e+03
  2.648193e+01    1.132882e+03
