# == pyFAI calibration ==
# Distance Sample to Detector: 0.2945755399789714 m
# PONI: 2.880e-01, 2.450e-01 m
# Rotations: -0.007291 -0.010887 -0.000000 rad
# 
# == Fit2d calibration ==
# Distance Sample-beamCenter: 294.601 mm
# Center: x=1437.174, y=1655.617 pix
# Tilt: 0.751 deg  TiltPlanRot: -56.193 deg
# 
# Detector Pilatus CdTe 2M	 PixelSize= 1.720e-04, 1.720e-04 m
#    Detector has a mask: True 
#    Detector has a dark current: False 
#    detector has a flat field: False 
# 
# Wavelength: 2.0732883349524408e-11 m
# Mask applied: from detector
# Dark current applied: False
# Flat field applied: False
# Polarization factor: 0.9000000000000002
# Normalization factor: 1.0
# --> /gpfs/current/raw/FMue_2_third_run/FMue_2_third_20231024_085044_00089.dat
#        q_A^-1             I 
  2.814346e-01    8.017172e+04
  3.339406e-01    4.577091e+04
  3.864466e-01    3.422126e+04
  4.389526e-01    2.837347e+04
  4.914586e-01    2.450626e+04
  5.439646e-01    2.219954e+04
  5.964706e-01    2.059462e+04
  6.489766e-01    1.917929e+04
  7.014826e-01    1.809363e+04
  7.539886e-01    1.713194e+04
  8.064947e-01    1.633530e+04
  8.590007e-01    1.567868e+04
  9.115067e-01    1.516993e+04
  9.640127e-01    1.475607e+04
  1.016519e+00    1.448295e+04
  1.069025e+00    1.438185e+04
  1.121531e+00    1.450467e+04
  1.174037e+00    1.474429e+04
  1.226543e+00    1.522255e+04
  1.279049e+00    1.611301e+04
  1.331555e+00    1.721455e+04
  1.384061e+00    1.764560e+04
  1.436567e+00    1.763556e+04
  1.489073e+00    1.749254e+04
  1.541579e+00    1.703395e+04
  1.594085e+00    1.632843e+04
  1.646591e+00    1.549904e+04
  1.699097e+00    1.450427e+04
  1.751603e+00    1.355381e+04
  1.804109e+00    1.270182e+04
  1.856615e+00    1.201218e+04
  1.909121e+00    1.148835e+04
  1.961627e+00    1.108686e+04
  2.014133e+00    1.083522e+04
  2.066639e+00    1.090386e+04
  2.119145e+00    1.174858e+04
  2.171651e+00    1.317483e+04
  2.224157e+00    1.270388e+04
  2.276663e+00    1.112135e+04
  2.329169e+00    1.034772e+04
  2.381675e+00    1.023723e+04
  2.434181e+00    1.086074e+04
  2.486687e+00    1.351184e+04
  2.539193e+00    1.914969e+04
  2.591699e+00    1.943186e+04
  2.644205e+00    1.399586e+04
  2.696711e+00    1.091273e+04
  2.749217e+00    9.425276e+03
  2.801723e+00    8.270919e+03
  2.854229e+00    7.582661e+03
  2.906735e+00    7.303302e+03
  2.959241e+00    7.285839e+03
  3.011747e+00    7.853888e+03
  3.064253e+00    9.648971e+03
  3.116759e+00    1.144009e+04
  3.169265e+00    1.115898e+04
  3.221771e+00    9.298757e+03
  3.274277e+00    7.362365e+03
  3.326783e+00    6.637912e+03
  3.379289e+00    6.459247e+03
  3.431795e+00    6.370398e+03
  3.484301e+00    6.334399e+03
  3.536807e+00    6.302997e+03
  3.589313e+00    6.296196e+03
  3.641819e+00    6.403275e+03
  3.694325e+00    6.620701e+03
  3.746831e+00    7.133386e+03
  3.799337e+00    7.523797e+03
  3.851843e+00    7.362300e+03
  3.904349e+00    7.533433e+03
  3.956855e+00    8.765500e+03
  4.009361e+00    1.039402e+04
  4.061867e+00    1.007431e+04
  4.114373e+00    8.664358e+03
  4.166879e+00    7.875534e+03
  4.219385e+00    7.619833e+03
  4.271891e+00    8.010007e+03
  4.324397e+00    1.007240e+04
  4.376903e+00    1.351253e+04
  4.429409e+00    1.424019e+04
  4.481915e+00    1.297264e+04
  4.534421e+00    1.011608e+04
  4.586927e+00    7.772313e+03
  4.639433e+00    6.799532e+03
  4.691939e+00    6.461350e+03
  4.744445e+00    6.312569e+03
  4.796951e+00    6.290126e+03
  4.849457e+00    6.414885e+03
  4.901963e+00    6.510682e+03
  4.954469e+00    6.556111e+03
  5.006975e+00    6.808671e+03
  5.059481e+00    7.312076e+03
  5.111987e+00    7.338823e+03
  5.164493e+00    6.722786e+03
  5.216999e+00    6.075542e+03
  5.269505e+00    5.716286e+03
  5.322011e+00    5.615018e+03
  5.374517e+00    5.583125e+03
  5.427023e+00    5.434941e+03
  5.479529e+00    5.342379e+03
  5.532035e+00    5.057698e+03
  5.584541e+00    4.753398e+03
  5.637047e+00    4.627269e+03
  5.689553e+00    4.630606e+03
  5.742059e+00    4.794297e+03
  5.794565e+00    4.967388e+03
  5.847071e+00    5.108567e+03
  5.899577e+00    5.475027e+03
  5.952083e+00    5.762234e+03
  6.004589e+00    5.402383e+03
  6.057095e+00    4.975896e+03
  6.109601e+00    4.857347e+03
  6.162107e+00    4.923504e+03
  6.214613e+00    4.951500e+03
  6.267119e+00    4.830859e+03
  6.319625e+00    4.690352e+03
  6.372131e+00    4.554947e+03
  6.424637e+00    4.415086e+03
  6.477143e+00    4.327176e+03
  6.529649e+00    4.365143e+03
  6.582155e+00    4.462299e+03
  6.634661e+00    4.625062e+03
  6.687167e+00    4.842148e+03
  6.739673e+00    4.835415e+03
  6.792179e+00    4.499742e+03
  6.844685e+00    4.245167e+03
  6.897191e+00    4.170628e+03
  6.949697e+00    4.201883e+03
  7.002203e+00    4.141624e+03
  7.054709e+00    4.108585e+03
  7.107215e+00    4.034868e+03
  7.159721e+00    3.954694e+03
  7.212227e+00    3.911911e+03
  7.264733e+00    3.944859e+03
  7.317239e+00    4.068476e+03
  7.369745e+00    4.200706e+03
  7.422251e+00    4.199086e+03
  7.474757e+00    4.178411e+03
  7.527263e+00    4.338616e+03
  7.579769e+00    4.569814e+03
  7.632275e+00    4.484480e+03
  7.684781e+00    4.357621e+03
  7.737287e+00    4.358401e+03
  7.789793e+00    4.247589e+03
  7.842299e+00    4.087315e+03
  7.894805e+00    4.066291e+03
  7.947311e+00    4.077315e+03
  7.999817e+00    4.136194e+03
  8.052323e+00    4.047095e+03
  8.104829e+00    3.865107e+03
  8.157335e+00    3.737845e+03
  8.209841e+00    3.668665e+03
  8.262347e+00    3.631636e+03
  8.314853e+00    3.588328e+03
  8.367359e+00    3.551189e+03
  8.419865e+00    3.534357e+03
  8.472371e+00    3.543070e+03
  8.524877e+00    3.541115e+03
  8.577383e+00    3.555867e+03
  8.629889e+00    3.527415e+03
  8.682395e+00    3.504960e+03
  8.734901e+00    3.532591e+03
  8.787407e+00    3.522488e+03
  8.839913e+00    3.469352e+03
  8.892419e+00    3.439474e+03
  8.944925e+00    3.435253e+03
  8.997431e+00    3.428146e+03
  9.049937e+00    3.417570e+03
  9.102443e+00    3.440779e+03
  9.154949e+00    3.426798e+03
  9.207455e+00    3.342569e+03
  9.259961e+00    3.275187e+03
  9.312467e+00    3.231168e+03
  9.364973e+00    3.185221e+03
  9.417480e+00    3.161425e+03
  9.469986e+00    3.183527e+03
  9.522492e+00    3.201267e+03
  9.574998e+00    3.227135e+03
  9.627504e+00    3.244273e+03
  9.680010e+00    3.223841e+03
  9.732516e+00    3.203706e+03
  9.785022e+00    3.192701e+03
  9.837528e+00    3.159391e+03
  9.890034e+00    3.119724e+03
  9.942540e+00    3.094560e+03
  9.995046e+00    3.099700e+03
  1.004755e+01    3.112875e+03
  1.010006e+01    3.099533e+03
  1.015256e+01    3.059986e+03
  1.020507e+01    2.991235e+03
  1.025758e+01    2.936927e+03
  1.031008e+01    2.916929e+03
  1.036259e+01    2.931923e+03
  1.041509e+01    2.921631e+03
  1.046760e+01    2.919019e+03
  1.052011e+01    2.927458e+03
  1.057261e+01    2.923882e+03
  1.062512e+01    2.907624e+03
  1.067762e+01    2.891061e+03
  1.073013e+01    2.872585e+03
  1.078264e+01    2.861528e+03
  1.083514e+01    2.846235e+03
  1.088765e+01    2.853223e+03
  1.094015e+01    2.874768e+03
  1.099266e+01    2.894195e+03
  1.104517e+01    2.883776e+03
  1.109767e+01    2.852677e+03
  1.115018e+01    2.813312e+03
  1.120268e+01    2.794358e+03
  1.125519e+01    2.776208e+03
  1.130770e+01    2.776419e+03
  1.136020e+01    2.782254e+03
  1.141271e+01    2.800236e+03
  1.146521e+01    2.808843e+03
  1.151772e+01    2.821919e+03
  1.157023e+01    2.824138e+03
  1.162273e+01    2.807237e+03
  1.167524e+01    2.769547e+03
  1.172774e+01    2.779316e+03
  1.178025e+01    2.763051e+03
  1.183276e+01    2.761010e+03
  1.188526e+01    2.741001e+03
  1.193777e+01    2.715159e+03
  1.199027e+01    2.685048e+03
  1.204278e+01    2.666487e+03
  1.209529e+01    2.664942e+03
  1.214779e+01    2.672486e+03
  1.220030e+01    2.682153e+03
  1.225280e+01    2.682070e+03
  1.230531e+01    2.669160e+03
  1.235782e+01    2.648788e+03
  1.241032e+01    2.631567e+03
  1.246283e+01    2.626844e+03
  1.251533e+01    2.615611e+03
  1.256784e+01    2.621349e+03
  1.262035e+01    2.616834e+03
  1.267285e+01    2.603751e+03
  1.272536e+01    2.589704e+03
  1.277786e+01    2.578913e+03
  1.283037e+01    2.565086e+03
  1.288288e+01    2.559913e+03
  1.293538e+01    2.550196e+03
  1.298789e+01    2.546123e+03
  1.304039e+01    2.545312e+03
  1.309290e+01    2.543308e+03
  1.314541e+01    2.539805e+03
  1.319791e+01    2.523249e+03
  1.325042e+01    2.505990e+03
  1.330292e+01    2.505059e+03
  1.335543e+01    2.510925e+03
  1.340794e+01    2.503474e+03
  1.346044e+01    2.515207e+03
  1.351295e+01    2.486606e+03
  1.356545e+01    2.473140e+03
  1.361796e+01    2.462038e+03
  1.367047e+01    2.460401e+03
  1.372297e+01    2.453880e+03
  1.377548e+01    2.442735e+03
  1.382798e+01    2.431262e+03
  1.388049e+01    2.418300e+03
  1.393300e+01    2.406532e+03
  1.398550e+01    2.406318e+03
  1.403801e+01    2.404225e+03
  1.409051e+01    2.394944e+03
  1.414302e+01    2.382158e+03
  1.419553e+01    2.375200e+03
  1.424803e+01    2.365038e+03
  1.430054e+01    2.353930e+03
  1.435304e+01    2.351957e+03
  1.440555e+01    2.342421e+03
  1.445806e+01    2.340317e+03
  1.451056e+01    2.330201e+03
  1.456307e+01    2.321127e+03
  1.461557e+01    2.316955e+03
  1.466808e+01    2.311605e+03
  1.472059e+01    2.308670e+03
  1.477309e+01    2.309339e+03
  1.482560e+01    2.302617e+03
  1.487810e+01    2.292998e+03
  1.493061e+01    2.284342e+03
  1.498312e+01    2.280157e+03
  1.503562e+01    2.279375e+03
  1.508813e+01    2.278637e+03
  1.514063e+01    2.277415e+03
  1.519314e+01    2.290208e+03
  1.524565e+01    2.318681e+03
  1.529815e+01    2.295944e+03
  1.535066e+01    2.286885e+03
  1.540316e+01    2.278640e+03
  1.545567e+01    2.265418e+03
  1.550818e+01    2.268897e+03
  1.556068e+01    2.263280e+03
  1.561319e+01    2.258250e+03
  1.566569e+01    2.255933e+03
  1.571820e+01    2.253445e+03
  1.577071e+01    2.249456e+03
  1.582321e+01    2.243327e+03
  1.587572e+01    2.237205e+03
  1.592822e+01    2.232682e+03
  1.598073e+01    2.224223e+03
  1.603324e+01    2.209048e+03
  1.608574e+01    2.194208e+03
  1.613825e+01    2.183807e+03
  1.619075e+01    2.186312e+03
  1.624326e+01    2.202497e+03
  1.629577e+01    2.197967e+03
  1.634827e+01    2.191802e+03
  1.640078e+01    2.188475e+03
  1.645328e+01    2.185634e+03
  1.650579e+01    2.184522e+03
  1.655830e+01    2.181611e+03
  1.661080e+01    2.174733e+03
  1.666331e+01    2.171406e+03
  1.671581e+01    2.164422e+03
  1.676832e+01    2.164338e+03
  1.682083e+01    2.157521e+03
  1.687333e+01    2.155420e+03
  1.692584e+01    2.154463e+03
  1.697834e+01    2.149684e+03
  1.703085e+01    2.143871e+03
  1.708336e+01    2.140749e+03
  1.713586e+01    2.134627e+03
  1.718837e+01    2.129737e+03
  1.724087e+01    2.122521e+03
  1.729338e+01    2.115535e+03
  1.734589e+01    2.113604e+03
  1.739839e+01    2.108235e+03
  1.745090e+01    2.104810e+03
  1.750340e+01    2.104365e+03
  1.755591e+01    2.097835e+03
  1.760842e+01    2.096007e+03
  1.766092e+01    2.088683e+03
  1.771343e+01    2.087001e+03
  1.776593e+01    2.078317e+03
  1.781844e+01    2.071763e+03
  1.787095e+01    2.065719e+03
  1.792345e+01    2.060558e+03
  1.797596e+01    2.056884e+03
  1.802846e+01    2.052876e+03
  1.808097e+01    2.044754e+03
  1.813348e+01    2.039736e+03
  1.818598e+01    2.032765e+03
  1.823849e+01    2.038518e+03
  1.829099e+01    2.024968e+03
  1.834350e+01    2.020339e+03
  1.839601e+01    2.015377e+03
  1.844851e+01    2.009982e+03
  1.850102e+01    2.007059e+03
  1.855352e+01    2.000981e+03
  1.860603e+01    1.998293e+03
  1.865854e+01    2.006533e+03
  1.871104e+01    2.011363e+03
  1.876355e+01    1.998770e+03
  1.881605e+01    1.993004e+03
  1.886856e+01    1.992096e+03
  1.892107e+01    1.986340e+03
  1.897357e+01    1.980792e+03
  1.902608e+01    1.971802e+03
  1.907858e+01    1.966500e+03
  1.913109e+01    1.959900e+03
  1.918360e+01    1.953828e+03
  1.923610e+01    1.948890e+03
  1.928861e+01    1.939521e+03
  1.934111e+01    1.934174e+03
  1.939362e+01    1.925394e+03
  1.944613e+01    1.921601e+03
  1.949863e+01    1.914598e+03
  1.955114e+01    1.908352e+03
  1.960364e+01    1.904050e+03
  1.965615e+01    1.897507e+03
  1.970866e+01    1.895432e+03
  1.976116e+01    1.887708e+03
  1.981367e+01    1.882749e+03
  1.986617e+01    1.876392e+03
  1.991868e+01    1.869647e+03
  1.997119e+01    1.866764e+03
  2.002369e+01    1.860597e+03
  2.007620e+01    1.853238e+03
  2.012870e+01    1.846468e+03
  2.018121e+01    1.839480e+03
  2.023372e+01    1.835750e+03
  2.028622e+01    1.825729e+03
  2.033873e+01    1.819386e+03
  2.039123e+01    1.811957e+03
  2.044374e+01    1.808899e+03
  2.049625e+01    1.802484e+03
  2.054875e+01    1.796885e+03
  2.060126e+01    1.792691e+03
  2.065376e+01    1.787318e+03
  2.070627e+01    1.783686e+03
  2.075878e+01    1.778159e+03
  2.081128e+01    1.786231e+03
  2.086379e+01    1.777688e+03
  2.091629e+01    1.764476e+03
  2.096880e+01    1.752466e+03
  2.102131e+01    1.743623e+03
  2.107381e+01    1.734562e+03
  2.112632e+01    1.722084e+03
  2.117882e+01    1.714643e+03
  2.123133e+01    1.705070e+03
  2.128384e+01    1.695238e+03
  2.133634e+01    1.688562e+03
  2.138885e+01    1.677129e+03
  2.144135e+01    1.669157e+03
  2.149386e+01    1.659163e+03
  2.154637e+01    1.653840e+03
  2.159887e+01    1.645926e+03
  2.165138e+01    1.636313e+03
  2.170388e+01    1.631935e+03
  2.175639e+01    1.627398e+03
  2.180890e+01    1.617714e+03
  2.186140e+01    1.608097e+03
  2.191391e+01    1.601617e+03
  2.196641e+01    1.593572e+03
  2.201892e+01    1.583129e+03
  2.207143e+01    1.573947e+03
  2.212393e+01    1.566069e+03
  2.217644e+01    1.556858e+03
  2.222894e+01    1.548545e+03
  2.228145e+01    1.541237e+03
  2.233396e+01    1.532597e+03
  2.238646e+01    1.522530e+03
  2.243897e+01    1.514909e+03
  2.249147e+01    1.506695e+03
  2.254398e+01    1.503128e+03
  2.259649e+01    1.505612e+03
  2.264899e+01    1.502560e+03
  2.270150e+01    1.501842e+03
  2.275400e+01    1.503427e+03
  2.280651e+01    1.501640e+03
  2.285902e+01    1.499669e+03
  2.291152e+01    1.498467e+03
  2.296403e+01    1.498307e+03
  2.301653e+01    1.495304e+03
  2.306904e+01    1.495680e+03
  2.312155e+01    1.491908e+03
  2.317405e+01    1.487733e+03
  2.322656e+01    1.483215e+03
  2.327906e+01    1.478626e+03
  2.333157e+01    1.477962e+03
  2.338408e+01    1.477127e+03
  2.343658e+01    1.473762e+03
  2.348909e+01    1.470727e+03
  2.354159e+01    1.467319e+03
  2.359410e+01    1.462683e+03
  2.364661e+01    1.460590e+03
  2.369911e+01    1.455618e+03
  2.375162e+01    1.449232e+03
  2.380412e+01    1.440007e+03
  2.385663e+01    1.431411e+03
  2.390914e+01    1.426520e+03
  2.396164e+01    1.419962e+03
  2.401415e+01    1.416196e+03
  2.406665e+01    1.411686e+03
  2.411916e+01    1.404374e+03
  2.417167e+01    1.397389e+03
  2.422417e+01    1.391188e+03
  2.427668e+01    1.382256e+03
  2.432918e+01    1.379408e+03
  2.438169e+01    1.371950e+03
  2.443420e+01    1.370572e+03
  2.448670e+01    1.363616e+03
  2.453921e+01    1.356360e+03
  2.459171e+01    1.355795e+03
  2.464422e+01    1.354672e+03
  2.469673e+01    1.343342e+03
  2.474923e+01    1.336355e+03
  2.480174e+01    1.325726e+03
  2.485425e+01    1.320678e+03
  2.490675e+01    1.309873e+03
  2.495926e+01    1.301830e+03
  2.501176e+01    1.296028e+03
  2.506427e+01    1.288743e+03
  2.511678e+01    1.276996e+03
  2.516928e+01    1.273984e+03
  2.522179e+01    1.265326e+03
  2.527429e+01    1.259533e+03
  2.532680e+01    1.249953e+03
  2.537931e+01    1.241534e+03
  2.543181e+01    1.233188e+03
  2.548432e+01    1.220046e+03
  2.553682e+01    1.210911e+03
  2.558933e+01    1.203269e+03
  2.564184e+01    1.194694e+03
  2.569434e+01    1.182098e+03
  2.574685e+01    1.172157e+03
  2.579935e+01    1.156012e+03
  2.585186e+01    1.147988e+03
  2.590437e+01    1.144376e+03
  2.595687e+01    1.138796e+03
  2.600938e+01    1.140787e+03
  2.606188e+01    1.134247e+03
  2.611439e+01    1.132552e+03
  2.616690e+01    1.133494e+03
  2.621940e+01    1.124859e+03
  2.627191e+01    1.115417e+03
  2.632441e+01    1.112935e+03
  2.637692e+01    1.112447e+03
  2.642943e+01    1.093330e+03
  2.648193e+01    1.065618e+03
