# == pyFAI calibration ==
# Distance Sample to Detector: 0.2945755399789714 m
# PONI: 2.880e-01, 2.450e-01 m
# Rotations: -0.007291 -0.010887 -0.000000 rad
# 
# == Fit2d calibration ==
# Distance Sample-beamCenter: 294.601 mm
# Center: x=1437.174, y=1655.617 pix
# Tilt: 0.751 deg  TiltPlanRot: -56.193 deg
# 
# Detector Pilatus CdTe 2M	 PixelSize= 1.720e-04, 1.720e-04 m
#    Detector has a mask: True 
#    Detector has a dark current: False 
#    detector has a flat field: False 
# 
# Wavelength: 2.0732883349524408e-11 m
# Mask applied: from detector
# Dark current applied: False
# Flat field applied: False
# Polarization factor: 0.9000000000000002
# Normalization factor: 1.0
# --> /gpfs/current/raw/FMue_2_third_run/FMue_2_third_20231024_085044_00092.dat
#        q_A^-1             I 
  2.814346e-01    7.962024e+04
  3.339406e-01    4.551358e+04
  3.864466e-01    3.405628e+04
  4.389526e-01    2.823514e+04
  4.914586e-01    2.439404e+04
  5.439646e-01    2.209555e+04
  5.964706e-01    2.049185e+04
  6.489766e-01    1.907622e+04
  7.014826e-01    1.801627e+04
  7.539886e-01    1.705714e+04
  8.064947e-01    1.628021e+04
  8.590007e-01    1.562101e+04
  9.115067e-01    1.511018e+04
  9.640127e-01    1.469855e+04
  1.016519e+00    1.442321e+04
  1.069025e+00    1.432876e+04
  1.121531e+00    1.444351e+04
  1.174037e+00    1.468577e+04
  1.226543e+00    1.517275e+04
  1.279049e+00    1.605511e+04
  1.331555e+00    1.714568e+04
  1.384061e+00    1.758866e+04
  1.436567e+00    1.758108e+04
  1.489073e+00    1.742244e+04
  1.541579e+00    1.698559e+04
  1.594085e+00    1.626501e+04
  1.646591e+00    1.544643e+04
  1.699097e+00    1.444905e+04
  1.751603e+00    1.350566e+04
  1.804109e+00    1.266497e+04
  1.856615e+00    1.197216e+04
  1.909121e+00    1.144511e+04
  1.961627e+00    1.104500e+04
  2.014133e+00    1.079145e+04
  2.066639e+00    1.085404e+04
  2.119145e+00    1.171228e+04
  2.171651e+00    1.313421e+04
  2.224157e+00    1.266193e+04
  2.276663e+00    1.108035e+04
  2.329169e+00    1.030452e+04
  2.381675e+00    1.019166e+04
  2.434181e+00    1.080877e+04
  2.486687e+00    1.347082e+04
  2.539193e+00    1.911173e+04
  2.591699e+00    1.937283e+04
  2.644205e+00    1.393912e+04
  2.696711e+00    1.086566e+04
  2.749217e+00    9.383918e+03
  2.801723e+00    8.230851e+03
  2.854229e+00    7.538715e+03
  2.906735e+00    7.274179e+03
  2.959241e+00    7.258061e+03
  3.011747e+00    7.833177e+03
  3.064253e+00    9.614230e+03
  3.116759e+00    1.140577e+04
  3.169265e+00    1.111864e+04
  3.221771e+00    9.254512e+03
  3.274277e+00    7.332129e+03
  3.326783e+00    6.610926e+03
  3.379289e+00    6.438831e+03
  3.431795e+00    6.346939e+03
  3.484301e+00    6.309759e+03
  3.536807e+00    6.285036e+03
  3.589313e+00    6.269068e+03
  3.641819e+00    6.375573e+03
  3.694325e+00    6.599248e+03
  3.746831e+00    7.111740e+03
  3.799337e+00    7.501062e+03
  3.851843e+00    7.333110e+03
  3.904349e+00    7.507188e+03
  3.956855e+00    8.739336e+03
  4.009361e+00    1.037172e+04
  4.061867e+00    1.004466e+04
  4.114373e+00    8.633156e+03
  4.166879e+00    7.846609e+03
  4.219385e+00    7.589637e+03
  4.271891e+00    7.979052e+03
  4.324397e+00    1.004127e+04
  4.376903e+00    1.347550e+04
  4.429409e+00    1.419747e+04
  4.481915e+00    1.291677e+04
  4.534421e+00    1.006919e+04
  4.586927e+00    7.737117e+03
  4.639433e+00    6.771587e+03
  4.691939e+00    6.435844e+03
  4.744445e+00    6.293066e+03
  4.796951e+00    6.271010e+03
  4.849457e+00    6.391075e+03
  4.901963e+00    6.490806e+03
  4.954469e+00    6.526570e+03
  5.006975e+00    6.785428e+03
  5.059481e+00    7.281240e+03
  5.111987e+00    7.319540e+03
  5.164493e+00    6.699932e+03
  5.216999e+00    6.053385e+03
  5.269505e+00    5.701423e+03
  5.322011e+00    5.592474e+03
  5.374517e+00    5.565167e+03
  5.427023e+00    5.417079e+03
  5.479529e+00    5.320481e+03
  5.532035e+00    5.037743e+03
  5.584541e+00    4.738117e+03
  5.637047e+00    4.609385e+03
  5.689553e+00    4.618818e+03
  5.742059e+00    4.778964e+03
  5.794565e+00    4.954379e+03
  5.847071e+00    5.094801e+03
  5.899577e+00    5.462275e+03
  5.952083e+00    5.742921e+03
  6.004589e+00    5.381162e+03
  6.057095e+00    4.956229e+03
  6.109601e+00    4.839285e+03
  6.162107e+00    4.910842e+03
  6.214613e+00    4.935702e+03
  6.267119e+00    4.816651e+03
  6.319625e+00    4.672976e+03
  6.372131e+00    4.536862e+03
  6.424637e+00    4.399354e+03
  6.477143e+00    4.307772e+03
  6.529649e+00    4.346219e+03
  6.582155e+00    4.444968e+03
  6.634661e+00    4.613391e+03
  6.687167e+00    4.832653e+03
  6.739673e+00    4.821979e+03
  6.792179e+00    4.486908e+03
  6.844685e+00    4.230233e+03
  6.897191e+00    4.155656e+03
  6.949697e+00    4.190542e+03
  7.002203e+00    4.124803e+03
  7.054709e+00    4.093813e+03
  7.107215e+00    4.023638e+03
  7.159721e+00    3.940454e+03
  7.212227e+00    3.897650e+03
  7.264733e+00    3.930814e+03
  7.317239e+00    4.054883e+03
  7.369745e+00    4.183278e+03
  7.422251e+00    4.186546e+03
  7.474757e+00    4.161268e+03
  7.527263e+00    4.328920e+03
  7.579769e+00    4.557182e+03
  7.632275e+00    4.465718e+03
  7.684781e+00    4.340563e+03
  7.737287e+00    4.344821e+03
  7.789793e+00    4.232895e+03
  7.842299e+00    4.073646e+03
  7.894805e+00    4.056315e+03
  7.947311e+00    4.064515e+03
  7.999817e+00    4.119465e+03
  8.052323e+00    4.031021e+03
  8.104829e+00    3.849669e+03
  8.157335e+00    3.725987e+03
  8.209841e+00    3.659179e+03
  8.262347e+00    3.615913e+03
  8.314853e+00    3.574046e+03
  8.367359e+00    3.537097e+03
  8.419865e+00    3.524480e+03
  8.472371e+00    3.530641e+03
  8.524877e+00    3.529859e+03
  8.577383e+00    3.547165e+03
  8.629889e+00    3.518088e+03
  8.682395e+00    3.494292e+03
  8.734901e+00    3.521053e+03
  8.787407e+00    3.513917e+03
  8.839913e+00    3.454708e+03
  8.892419e+00    3.427894e+03
  8.944925e+00    3.423991e+03
  8.997431e+00    3.413105e+03
  9.049937e+00    3.407535e+03
  9.102443e+00    3.429437e+03
  9.154949e+00    3.414794e+03
  9.207455e+00    3.332691e+03
  9.259961e+00    3.263865e+03
  9.312467e+00    3.219183e+03
  9.364973e+00    3.177646e+03
  9.417480e+00    3.150678e+03
  9.469986e+00    3.172125e+03
  9.522492e+00    3.191911e+03
  9.574998e+00    3.214961e+03
  9.627504e+00    3.231797e+03
  9.680010e+00    3.213702e+03
  9.732516e+00    3.193560e+03
  9.785022e+00    3.183809e+03
  9.837528e+00    3.147130e+03
  9.890034e+00    3.108675e+03
  9.942540e+00    3.083302e+03
  9.995046e+00    3.087346e+03
  1.004755e+01    3.100867e+03
  1.010006e+01    3.090677e+03
  1.015256e+01    3.051504e+03
  1.020507e+01    2.983220e+03
  1.025758e+01    2.925628e+03
  1.031008e+01    2.905484e+03
  1.036259e+01    2.921191e+03
  1.041509e+01    2.914006e+03
  1.046760e+01    2.910756e+03
  1.052011e+01    2.916665e+03
  1.057261e+01    2.911177e+03
  1.062512e+01    2.897219e+03
  1.067762e+01    2.878671e+03
  1.073013e+01    2.861593e+03
  1.078264e+01    2.850879e+03
  1.083514e+01    2.834421e+03
  1.088765e+01    2.845912e+03
  1.094015e+01    2.868964e+03
  1.099266e+01    2.885985e+03
  1.104517e+01    2.871634e+03
  1.109767e+01    2.841488e+03
  1.115018e+01    2.803966e+03
  1.120268e+01    2.785562e+03
  1.125519e+01    2.768365e+03
  1.130770e+01    2.769005e+03
  1.136020e+01    2.773124e+03
  1.141271e+01    2.790032e+03
  1.146521e+01    2.802580e+03
  1.151772e+01    2.814624e+03
  1.157023e+01    2.814075e+03
  1.162273e+01    2.798542e+03
  1.167524e+01    2.760847e+03
  1.172774e+01    2.768751e+03
  1.178025e+01    2.755226e+03
  1.183276e+01    2.750521e+03
  1.188526e+01    2.732317e+03
  1.193777e+01    2.706056e+03
  1.199027e+01    2.675456e+03
  1.204278e+01    2.657821e+03
  1.209529e+01    2.656035e+03
  1.214779e+01    2.662503e+03
  1.220030e+01    2.671749e+03
  1.225280e+01    2.672787e+03
  1.230531e+01    2.660859e+03
  1.235782e+01    2.638009e+03
  1.241032e+01    2.624217e+03
  1.246283e+01    2.616503e+03
  1.251533e+01    2.609127e+03
  1.256784e+01    2.611674e+03
  1.262035e+01    2.604615e+03
  1.267285e+01    2.593163e+03
  1.272536e+01    2.582035e+03
  1.277786e+01    2.569992e+03
  1.283037e+01    2.557617e+03
  1.288288e+01    2.550156e+03
  1.293538e+01    2.540582e+03
  1.298789e+01    2.538977e+03
  1.304039e+01    2.537163e+03
  1.309290e+01    2.535064e+03
  1.314541e+01    2.529775e+03
  1.319791e+01    2.514367e+03
  1.325042e+01    2.497164e+03
  1.330292e+01    2.496343e+03
  1.335543e+01    2.500519e+03
  1.340794e+01    2.494973e+03
  1.346044e+01    2.506103e+03
  1.351295e+01    2.476837e+03
  1.356545e+01    2.463991e+03
  1.361796e+01    2.451525e+03
  1.367047e+01    2.451983e+03
  1.372297e+01    2.447061e+03
  1.377548e+01    2.436407e+03
  1.382798e+01    2.423675e+03
  1.388049e+01    2.411131e+03
  1.393300e+01    2.400515e+03
  1.398550e+01    2.397867e+03
  1.403801e+01    2.395509e+03
  1.409051e+01    2.387726e+03
  1.414302e+01    2.375544e+03
  1.419553e+01    2.368647e+03
  1.424803e+01    2.357272e+03
  1.430054e+01    2.348327e+03
  1.435304e+01    2.342254e+03
  1.440555e+01    2.335980e+03
  1.445806e+01    2.332623e+03
  1.451056e+01    2.322613e+03
  1.456307e+01    2.314011e+03
  1.461557e+01    2.308458e+03
  1.466808e+01    2.304739e+03
  1.472059e+01    2.303340e+03
  1.477309e+01    2.303450e+03
  1.482560e+01    2.295919e+03
  1.487810e+01    2.284475e+03
  1.493061e+01    2.277089e+03
  1.498312e+01    2.273625e+03
  1.503562e+01    2.270738e+03
  1.508813e+01    2.270282e+03
  1.514063e+01    2.273169e+03
  1.519314e+01    2.284386e+03
  1.524565e+01    2.309135e+03
  1.529815e+01    2.289630e+03
  1.535066e+01    2.280936e+03
  1.540316e+01    2.272430e+03
  1.545567e+01    2.258287e+03
  1.550818e+01    2.262937e+03
  1.556068e+01    2.256135e+03
  1.561319e+01    2.251466e+03
  1.566569e+01    2.247947e+03
  1.571820e+01    2.246596e+03
  1.577071e+01    2.241776e+03
  1.582321e+01    2.234215e+03
  1.587572e+01    2.229762e+03
  1.592822e+01    2.225265e+03
  1.598073e+01    2.218778e+03
  1.603324e+01    2.202691e+03
  1.608574e+01    2.186952e+03
  1.613825e+01    2.177146e+03
  1.619075e+01    2.180460e+03
  1.624326e+01    2.195026e+03
  1.629577e+01    2.191295e+03
  1.634827e+01    2.185401e+03
  1.640078e+01    2.181478e+03
  1.645328e+01    2.178123e+03
  1.650579e+01    2.176470e+03
  1.655830e+01    2.173616e+03
  1.661080e+01    2.167306e+03
  1.666331e+01    2.164128e+03
  1.671581e+01    2.158596e+03
  1.676832e+01    2.156330e+03
  1.682083e+01    2.150778e+03
  1.687333e+01    2.147211e+03
  1.692584e+01    2.147781e+03
  1.697834e+01    2.141674e+03
  1.703085e+01    2.134919e+03
  1.708336e+01    2.134575e+03
  1.713586e+01    2.127359e+03
  1.718837e+01    2.121887e+03
  1.724087e+01    2.115611e+03
  1.729338e+01    2.110397e+03
  1.734589e+01    2.106125e+03
  1.739839e+01    2.100899e+03
  1.745090e+01    2.097863e+03
  1.750340e+01    2.098251e+03
  1.755591e+01    2.091726e+03
  1.760842e+01    2.089028e+03
  1.766092e+01    2.082220e+03
  1.771343e+01    2.079441e+03
  1.776593e+01    2.073226e+03
  1.781844e+01    2.065298e+03
  1.787095e+01    2.060272e+03
  1.792345e+01    2.054831e+03
  1.797596e+01    2.048667e+03
  1.802846e+01    2.045781e+03
  1.808097e+01    2.036976e+03
  1.813348e+01    2.031959e+03
  1.818598e+01    2.025703e+03
  1.823849e+01    2.029615e+03
  1.829099e+01    2.020208e+03
  1.834350e+01    2.014183e+03
  1.839601e+01    2.007590e+03
  1.844851e+01    2.002497e+03
  1.850102e+01    2.001835e+03
  1.855352e+01    1.994422e+03
  1.860603e+01    1.992220e+03
  1.865854e+01    2.000256e+03
  1.871104e+01    2.004055e+03
  1.876355e+01    1.992886e+03
  1.881605e+01    1.986205e+03
  1.886856e+01    1.984514e+03
  1.892107e+01    1.979833e+03
  1.897357e+01    1.973789e+03
  1.902608e+01    1.966418e+03
  1.907858e+01    1.961088e+03
  1.913109e+01    1.953424e+03
  1.918360e+01    1.947251e+03
  1.923610e+01    1.940732e+03
  1.928861e+01    1.933951e+03
  1.934111e+01    1.928873e+03
  1.939362e+01    1.919008e+03
  1.944613e+01    1.915856e+03
  1.949863e+01    1.908387e+03
  1.955114e+01    1.901685e+03
  1.960364e+01    1.897882e+03
  1.965615e+01    1.889154e+03
  1.970866e+01    1.887441e+03
  1.976116e+01    1.880907e+03
  1.981367e+01    1.876829e+03
  1.986617e+01    1.870294e+03
  1.991868e+01    1.864586e+03
  1.997119e+01    1.857625e+03
  2.002369e+01    1.853800e+03
  2.007620e+01    1.846645e+03
  2.012870e+01    1.840707e+03
  2.018121e+01    1.833682e+03
  2.023372e+01    1.829482e+03
  2.028622e+01    1.820073e+03
  2.033873e+01    1.812298e+03
  2.039123e+01    1.807149e+03
  2.044374e+01    1.802094e+03
  2.049625e+01    1.796713e+03
  2.054875e+01    1.791479e+03
  2.060126e+01    1.787638e+03
  2.065376e+01    1.780762e+03
  2.070627e+01    1.777537e+03
  2.075878e+01    1.773162e+03
  2.081128e+01    1.781137e+03
  2.086379e+01    1.773038e+03
  2.091629e+01    1.757960e+03
  2.096880e+01    1.745840e+03
  2.102131e+01    1.738078e+03
  2.107381e+01    1.729160e+03
  2.112632e+01    1.717484e+03
  2.117882e+01    1.709295e+03
  2.123133e+01    1.700381e+03
  2.128384e+01    1.691369e+03
  2.133634e+01    1.681863e+03
  2.138885e+01    1.669828e+03
  2.144135e+01    1.662942e+03
  2.149386e+01    1.656150e+03
  2.154637e+01    1.648055e+03
  2.159887e+01    1.641331e+03
  2.165138e+01    1.632090e+03
  2.170388e+01    1.625202e+03
  2.175639e+01    1.620388e+03
  2.180890e+01    1.612199e+03
  2.186140e+01    1.602443e+03
  2.191391e+01    1.595941e+03
  2.196641e+01    1.588561e+03
  2.201892e+01    1.578532e+03
  2.207143e+01    1.568750e+03
  2.212393e+01    1.561935e+03
  2.217644e+01    1.550385e+03
  2.222894e+01    1.543119e+03
  2.228145e+01    1.535115e+03
  2.233396e+01    1.528122e+03
  2.238646e+01    1.517292e+03
  2.243897e+01    1.509582e+03
  2.249147e+01    1.501141e+03
  2.254398e+01    1.497112e+03
  2.259649e+01    1.501073e+03
  2.264899e+01    1.496957e+03
  2.270150e+01    1.497065e+03
  2.275400e+01    1.497682e+03
  2.280651e+01    1.495513e+03
  2.285902e+01    1.495330e+03
  2.291152e+01    1.492892e+03
  2.296403e+01    1.493127e+03
  2.301653e+01    1.491249e+03
  2.306904e+01    1.489120e+03
  2.312155e+01    1.486731e+03
  2.317405e+01    1.482775e+03
  2.322656e+01    1.478186e+03
  2.327906e+01    1.474163e+03
  2.333157e+01    1.471022e+03
  2.338408e+01    1.472250e+03
  2.343658e+01    1.469396e+03
  2.348909e+01    1.466185e+03
  2.354159e+01    1.462086e+03
  2.359410e+01    1.458337e+03
  2.364661e+01    1.455292e+03
  2.369911e+01    1.449393e+03
  2.375162e+01    1.444321e+03
  2.380412e+01    1.434939e+03
  2.385663e+01    1.427702e+03
  2.390914e+01    1.422423e+03
  2.396164e+01    1.417009e+03
  2.401415e+01    1.410683e+03
  2.406665e+01    1.405983e+03
  2.411916e+01    1.400441e+03
  2.417167e+01    1.392092e+03
  2.422417e+01    1.386781e+03
  2.427668e+01    1.378963e+03
  2.432918e+01    1.374627e+03
  2.438169e+01    1.368365e+03
  2.443420e+01    1.366533e+03
  2.448670e+01    1.359830e+03
  2.453921e+01    1.355423e+03
  2.459171e+01    1.351501e+03
  2.464422e+01    1.349353e+03
  2.469673e+01    1.339026e+03
  2.474923e+01    1.332700e+03
  2.480174e+01    1.323096e+03
  2.485425e+01    1.313326e+03
  2.490675e+01    1.306279e+03
  2.495926e+01    1.300784e+03
  2.501176e+01    1.290931e+03
  2.506427e+01    1.281529e+03
  2.511678e+01    1.275091e+03
  2.516928e+01    1.268587e+03
  2.522179e+01    1.262866e+03
  2.527429e+01    1.252091e+03
  2.532680e+01    1.243300e+03
  2.537931e+01    1.237189e+03
  2.543181e+01    1.227285e+03
  2.548432e+01    1.215188e+03
  2.553682e+01    1.202738e+03
  2.558933e+01    1.199763e+03
  2.564184e+01    1.188552e+03
  2.569434e+01    1.178664e+03
  2.574685e+01    1.168437e+03
  2.579935e+01    1.153671e+03
  2.585186e+01    1.145272e+03
  2.590437e+01    1.141355e+03
  2.595687e+01    1.137235e+03
  2.600938e+01    1.133893e+03
  2.606188e+01    1.132876e+03
  2.611439e+01    1.135379e+03
  2.616690e+01    1.130732e+03
  2.621940e+01    1.120885e+03
  2.627191e+01    1.110929e+03
  2.632441e+01    1.118931e+03
  2.637692e+01    1.100996e+03
  2.642943e+01    1.081214e+03
  2.648193e+01    1.066734e+03
