# == pyFAI calibration ==
# Distance Sample to Detector: 0.2945755399789714 m
# PONI: 2.880e-01, 2.450e-01 m
# Rotations: -0.007291 -0.010887 -0.000000 rad
# 
# == Fit2d calibration ==
# Distance Sample-beamCenter: 294.601 mm
# Center: x=1437.174, y=1655.617 pix
# Tilt: 0.751 deg  TiltPlanRot: -56.193 deg
# 
# Detector Pilatus CdTe 2M	 PixelSize= 1.720e-04, 1.720e-04 m
#    Detector has a mask: True 
#    Detector has a dark current: False 
#    detector has a flat field: False 
# 
# Wavelength: 2.0732883349524408e-11 m
# Mask applied: from detector
# Dark current applied: False
# Flat field applied: False
# Polarization factor: 0.9
# Normalization factor: 1.0
# --> /gpfs/current/raw/FMue_2/FMue_2_20231024_120911_00015.dat
#        q_A^-1             I 
  3.263564e-02             nan
  8.563974e-02             nan
  1.386438e-01             nan
  1.916479e-01             nan
  2.446520e-01    3.508261e+04
  2.976561e-01    2.743777e+04
  3.506602e-01    1.475798e+04
  4.036643e-01    1.038167e+04
  4.566684e-01    8.908064e+03
  5.096725e-01    8.565638e+03
  5.626766e-01    8.407651e+03
  6.156807e-01    8.205262e+03
  6.686848e-01    8.131132e+03
  7.216890e-01    8.249352e+03
  7.746931e-01    8.291771e+03
  8.276972e-01    8.389012e+03
  8.807013e-01    8.467903e+03
  9.337054e-01    8.624314e+03
  9.867095e-01    8.787274e+03
  1.039714e+00    9.037467e+03
  1.092718e+00    9.363119e+03
  1.145722e+00    9.853200e+03
  1.198726e+00    1.047707e+04
  1.251730e+00    1.132635e+04
  1.304734e+00    1.266591e+04
  1.357738e+00    1.374299e+04
  1.410742e+00    1.398768e+04
  1.463746e+00    1.401175e+04
  1.516750e+00    1.388366e+04
  1.569755e+00    1.335700e+04
  1.622759e+00    1.268171e+04
  1.675763e+00    1.181072e+04
  1.728767e+00    1.091555e+04
  1.781771e+00    1.009884e+04
  1.834775e+00    9.416239e+03
  1.887779e+00    8.832992e+03
  1.940783e+00    8.452820e+03
  1.993787e+00    8.158588e+03
  2.046791e+00    8.085843e+03
  2.099796e+00    8.566926e+03
  2.152800e+00    1.020234e+04
  2.205804e+00    1.105051e+04
  2.258808e+00    9.364365e+03
  2.311812e+00    8.092341e+03
  2.364816e+00    7.709917e+03
  2.417820e+00    7.973313e+03
  2.470824e+00    9.491386e+03
  2.523828e+00    1.471741e+04
  2.576832e+00    1.917403e+04
  2.629837e+00    1.417947e+04
  2.682841e+00    9.505467e+03
  2.735845e+00    7.698936e+03
  2.788849e+00    6.479610e+03
  2.841853e+00    5.592787e+03
  2.894857e+00    5.198478e+03
  2.947861e+00    5.106510e+03
  3.000865e+00    5.388783e+03
  3.053869e+00    6.811972e+03
  3.106874e+00    9.229386e+03
  3.159878e+00    9.661174e+03
  3.212882e+00    8.185139e+03
  3.265886e+00    6.002944e+03
  3.318890e+00    4.869193e+03
  3.371894e+00    4.585506e+03
  3.424898e+00    4.499110e+03
  3.477902e+00    4.475724e+03
  3.530906e+00    4.461478e+03
  3.583910e+00    4.468830e+03
  3.636915e+00    4.542481e+03
  3.689919e+00    4.748031e+03
  3.742923e+00    5.291626e+03
  3.795927e+00    5.921171e+03
  3.848931e+00    5.790196e+03
  3.901935e+00    5.734503e+03
  3.954939e+00    6.805796e+03
  4.007943e+00    8.958335e+03
  4.060947e+00    9.221358e+03
  4.113951e+00    7.491381e+03
  4.166956e+00    6.428518e+03
  4.219960e+00    6.058987e+03
  4.272964e+00    6.284278e+03
  4.325968e+00    8.110642e+03
  4.378972e+00    1.225432e+04
  4.431976e+00    1.350072e+04
  4.484980e+00    1.222427e+04
  4.537984e+00    9.427292e+03
  4.590988e+00    6.624828e+03
  4.643992e+00    5.404265e+03
  4.696997e+00    5.014181e+03
  4.750001e+00    4.866452e+03
  4.803005e+00    4.862069e+03
  4.856009e+00    5.034105e+03
  4.909013e+00    5.211807e+03
  4.962017e+00    5.244376e+03
  5.015021e+00    5.500532e+03
  5.068025e+00    6.152452e+03
  5.121029e+00    6.293627e+03
  5.174033e+00    5.616659e+03
  5.227038e+00    4.889050e+03
  5.280042e+00    4.492227e+03
  5.333046e+00    4.400100e+03
  5.386050e+00    4.422631e+03
  5.439054e+00    4.259294e+03
  5.492058e+00    4.201599e+03
  5.545062e+00    3.938894e+03
  5.598066e+00    3.612302e+03
  5.651070e+00    3.476056e+03
  5.704074e+00    3.516690e+03
  5.757079e+00    3.754368e+03
  5.810083e+00    4.016768e+03
  5.863087e+00    4.154754e+03
  5.916091e+00    4.669605e+03
  5.969095e+00    5.059021e+03
  6.022099e+00    4.537440e+03
  6.075103e+00    4.020193e+03
  6.128107e+00    3.901438e+03
  6.181111e+00    4.053551e+03
  6.234115e+00    4.101837e+03
  6.287120e+00    3.935656e+03
  6.340124e+00    3.784542e+03
  6.393128e+00    3.644081e+03
  6.446132e+00    3.477287e+03
  6.499136e+00    3.416981e+03
  6.552140e+00    3.500198e+03
  6.605144e+00    3.639714e+03
  6.658148e+00    3.866902e+03
  6.711152e+00    4.216513e+03
  6.764156e+00    4.140427e+03
  6.817161e+00    3.694310e+03
  6.870165e+00    3.417698e+03
  6.923169e+00    3.385983e+03
  6.976173e+00    3.376452e+03
  7.029177e+00    3.306162e+03
  7.082181e+00    3.292154e+03
  7.135185e+00    3.214595e+03
  7.188189e+00    3.118793e+03
  7.241193e+00    3.091597e+03
  7.294197e+00    3.177224e+03
  7.347202e+00    3.376102e+03
  7.400206e+00    3.555803e+03
  7.453210e+00    3.501547e+03
  7.506214e+00    3.489446e+03
  7.559218e+00    3.809552e+03
  7.612222e+00    4.089067e+03
  7.665226e+00    3.863466e+03
  7.718230e+00    3.734855e+03
  7.771234e+00    3.760977e+03
  7.824239e+00    3.594373e+03
  7.877243e+00    3.442969e+03
  7.930247e+00    3.421750e+03
  7.983251e+00    3.539695e+03
  8.036255e+00    3.609399e+03
  8.089259e+00    3.425305e+03
  8.142263e+00    3.183323e+03
  8.195267e+00    3.052465e+03
  8.248271e+00    2.996639e+03
  8.301275e+00    2.957478e+03
  8.354280e+00    2.922009e+03
  8.407284e+00    2.905103e+03
  8.460288e+00    2.912973e+03
  8.513292e+00    2.934819e+03
  8.566296e+00    2.970466e+03
  8.619300e+00    2.966129e+03
  8.672304e+00    2.925630e+03
  8.725308e+00    2.951929e+03
  8.778312e+00    2.999289e+03
  8.831316e+00    2.952270e+03
  8.884321e+00    2.896209e+03
  8.937325e+00    2.885064e+03
  8.990329e+00    2.898621e+03
  9.043333e+00    2.906739e+03
  9.096337e+00    2.939900e+03
  9.149341e+00    2.977861e+03
  9.202345e+00    2.911505e+03
  9.255349e+00    2.796001e+03
  9.308353e+00    2.727198e+03
  9.361357e+00    2.678517e+03
  9.414362e+00    2.637174e+03
  9.467366e+00    2.660902e+03
  9.520370e+00    2.713804e+03
  9.573374e+00    2.768682e+03
  9.626378e+00    2.823244e+03
  9.679382e+00    2.826443e+03
  9.732386e+00    2.788460e+03
  9.785390e+00    2.785949e+03
  9.838394e+00    2.771969e+03
  9.891398e+00    2.706698e+03
  9.944403e+00    2.664634e+03
  9.997407e+00    2.674498e+03
  1.005041e+01    2.708986e+03
  1.010341e+01    2.738213e+03
  1.015642e+01    2.739063e+03
  1.020942e+01    2.651579e+03
  1.026243e+01    2.551935e+03
  1.031543e+01    2.508152e+03
  1.036844e+01    2.501635e+03
  1.042144e+01    2.491966e+03
  1.047444e+01    2.502915e+03
  1.052745e+01    2.522026e+03
  1.058045e+01    2.542942e+03
  1.063346e+01    2.531812e+03
  1.068646e+01    2.498829e+03
  1.073946e+01    2.480307e+03
  1.079247e+01    2.466146e+03
  1.084547e+01    2.444478e+03
  1.089848e+01    2.457934e+03
  1.095148e+01    2.501395e+03
  1.100448e+01    2.553756e+03
  1.105749e+01    2.567990e+03
  1.111049e+01    2.523363e+03
  1.116350e+01    2.456787e+03
  1.121650e+01    2.421674e+03
  1.126951e+01    2.403117e+03
  1.132251e+01    2.408667e+03
  1.137551e+01    2.432600e+03
  1.142852e+01    2.471667e+03
  1.148152e+01    2.497889e+03
  1.153453e+01    2.518953e+03
  1.158753e+01    2.542129e+03
  1.164053e+01    2.524752e+03
  1.169354e+01    2.464462e+03
  1.174654e+01    2.450125e+03
  1.179955e+01    2.442631e+03
  1.185255e+01    2.455791e+03
  1.190555e+01    2.442958e+03
  1.195856e+01    2.402349e+03
  1.201156e+01    2.354380e+03
  1.206457e+01    2.324734e+03
  1.211757e+01    2.329817e+03
  1.217057e+01    2.350862e+03
  1.222358e+01    2.382579e+03
  1.227658e+01    2.402728e+03
  1.232959e+01    2.390770e+03
  1.238259e+01    2.348251e+03
  1.243560e+01    2.327441e+03
  1.248860e+01    2.314970e+03
  1.254160e+01    2.320735e+03
  1.259461e+01    2.326853e+03
  1.264761e+01    2.326845e+03
  1.270062e+01    2.312418e+03
  1.275362e+01    2.294730e+03
  1.280662e+01    2.278294e+03
  1.285963e+01    2.268009e+03
  1.291263e+01    2.259154e+03
  1.296564e+01    2.258436e+03
  1.301864e+01    2.269371e+03
  1.307164e+01    2.275237e+03
  1.312465e+01    2.279530e+03
  1.317765e+01    2.279451e+03
  1.323066e+01    2.261707e+03
  1.328366e+01    2.266948e+03
  1.333667e+01    2.284795e+03
  1.338967e+01    2.306022e+03
  1.344267e+01    2.312937e+03
  1.349568e+01    2.273644e+03
  1.354868e+01    2.235036e+03
  1.360169e+01    2.219691e+03
  1.365469e+01    2.215200e+03
  1.370769e+01    2.223550e+03
  1.376070e+01    2.221130e+03
  1.381370e+01    2.210308e+03
  1.386671e+01    2.191177e+03
  1.391971e+01    2.173557e+03
  1.397271e+01    2.167853e+03
  1.402572e+01    2.166960e+03
  1.407872e+01    2.169118e+03
  1.413173e+01    2.164105e+03
  1.418473e+01    2.151374e+03
  1.423773e+01    2.135272e+03
  1.429074e+01    2.123472e+03
  1.434374e+01    2.124220e+03
  1.439675e+01    2.123732e+03
  1.444975e+01    2.123531e+03
  1.450276e+01    2.118126e+03
  1.455576e+01    2.106305e+03
  1.460876e+01    2.098337e+03
  1.466177e+01    2.092472e+03
  1.471477e+01    2.096749e+03
  1.476778e+01    2.099597e+03
  1.482078e+01    2.092779e+03
  1.487378e+01    2.076464e+03
  1.492679e+01    2.067739e+03
  1.497979e+01    2.062191e+03
  1.503280e+01    2.064302e+03
  1.508580e+01    2.066455e+03
  1.513880e+01    2.065933e+03
  1.519181e+01    2.073697e+03
  1.524481e+01    2.100824e+03
  1.529782e+01    2.089084e+03
  1.535082e+01    2.088584e+03
  1.540382e+01    2.089194e+03
  1.545683e+01    2.076926e+03
  1.550983e+01    2.072436e+03
  1.556284e+01    2.063588e+03
  1.561584e+01    2.057789e+03
  1.566885e+01    2.059308e+03
  1.572185e+01    2.064543e+03
  1.577485e+01    2.067494e+03
  1.582786e+01    2.060276e+03
  1.588086e+01    2.051689e+03
  1.593387e+01    2.043385e+03
  1.598687e+01    2.035915e+03
  1.603987e+01    2.027050e+03
  1.609288e+01    2.014840e+03
  1.614588e+01    2.003954e+03
  1.619889e+01    2.004690e+03
  1.625189e+01    2.010106e+03
  1.630489e+01    2.008968e+03
  1.635790e+01    2.003681e+03
  1.641090e+01    1.998508e+03
  1.646391e+01    1.995310e+03
  1.651691e+01    2.001889e+03
  1.656992e+01    2.003236e+03
  1.662292e+01    2.001246e+03
  1.667592e+01    1.998217e+03
  1.672893e+01    1.990750e+03
  1.678193e+01    1.988763e+03
  1.683494e+01    1.984567e+03
  1.688794e+01    1.986524e+03
  1.694094e+01    1.987238e+03
  1.699395e+01    1.984240e+03
  1.704695e+01    1.982170e+03
  1.709996e+01    1.981996e+03
  1.715296e+01    1.981099e+03
  1.720596e+01    1.974973e+03
  1.725897e+01    1.965609e+03
  1.731197e+01    1.957835e+03
  1.736498e+01    1.949148e+03
  1.741798e+01    1.948900e+03
  1.747098e+01    1.948342e+03
  1.752399e+01    1.944280e+03
  1.757699e+01    1.941470e+03
  1.763000e+01    1.940852e+03
  1.768300e+01    1.940717e+03
  1.773601e+01    1.939923e+03
  1.778901e+01    1.934208e+03
  1.784201e+01    1.926720e+03
  1.789502e+01    1.925373e+03
  1.794802e+01    1.921307e+03
  1.800103e+01    1.922173e+03
  1.805403e+01    1.917515e+03
  1.810703e+01    1.909607e+03
  1.816004e+01    1.903818e+03
  1.821304e+01    1.899184e+03
  1.826605e+01    1.901439e+03
  1.831905e+01    1.889353e+03
  1.837205e+01    1.885102e+03
  1.842506e+01    1.882458e+03
  1.847806e+01    1.882953e+03
  1.853107e+01    1.880268e+03
  1.858407e+01    1.877181e+03
  1.863708e+01    1.880255e+03
  1.869008e+01    1.896348e+03
  1.874308e+01    1.887048e+03
  1.879609e+01    1.882875e+03
  1.884909e+01    1.878528e+03
  1.890210e+01    1.875212e+03
  1.895510e+01    1.870673e+03
  1.900810e+01    1.870491e+03
  1.906111e+01    1.864150e+03
  1.911411e+01    1.859790e+03
  1.916712e+01    1.857706e+03
  1.922012e+01    1.856623e+03
  1.927312e+01    1.849757e+03
  1.932613e+01    1.846167e+03
  1.937913e+01    1.842280e+03
  1.943214e+01    1.837386e+03
  1.948514e+01    1.834787e+03
  1.953814e+01    1.829930e+03
  1.959115e+01    1.827986e+03
  1.964415e+01    1.820469e+03
  1.969716e+01    1.820010e+03
  1.975016e+01    1.814811e+03
  1.980317e+01    1.810959e+03
  1.985617e+01    1.806402e+03
  1.990917e+01    1.801739e+03
  1.996218e+01    1.797614e+03
  2.001518e+01    1.796537e+03
  2.006819e+01    1.790348e+03
  2.012119e+01    1.784812e+03
  2.017419e+01    1.781997e+03
  2.022720e+01    1.776279e+03
  2.028020e+01    1.769688e+03
  2.033321e+01    1.762359e+03
  2.038621e+01    1.756700e+03
  2.043921e+01    1.753702e+03
  2.049222e+01    1.748289e+03
  2.054522e+01    1.743365e+03
  2.059823e+01    1.739249e+03
  2.065123e+01    1.733649e+03
  2.070424e+01    1.728604e+03
  2.075724e+01    1.727339e+03
  2.081024e+01    1.734741e+03
  2.086325e+01    1.726644e+03
  2.091625e+01    1.710763e+03
  2.096926e+01    1.698754e+03
  2.102226e+01    1.686726e+03
  2.107526e+01    1.678516e+03
  2.112827e+01    1.668000e+03
  2.118127e+01    1.657874e+03
  2.123428e+01    1.646979e+03
  2.128728e+01    1.637586e+03
  2.134028e+01    1.627956e+03
  2.139329e+01    1.617851e+03
  2.144629e+01    1.610468e+03
  2.149930e+01    1.600986e+03
  2.155230e+01    1.594352e+03
  2.160530e+01    1.586643e+03
  2.165831e+01    1.576857e+03
  2.171131e+01    1.571237e+03
  2.176432e+01    1.565256e+03
  2.181732e+01    1.556829e+03
  2.187033e+01    1.545866e+03
  2.192333e+01    1.539802e+03
  2.197633e+01    1.530476e+03
  2.202934e+01    1.522336e+03
  2.208234e+01    1.512382e+03
  2.213535e+01    1.503103e+03
  2.218835e+01    1.493603e+03
  2.224135e+01    1.484115e+03
  2.229436e+01    1.477588e+03
  2.234736e+01    1.468347e+03
  2.240037e+01    1.459212e+03
  2.245337e+01    1.450847e+03
  2.250637e+01    1.445293e+03
  2.255938e+01    1.436065e+03
  2.261238e+01    1.437989e+03
  2.266539e+01    1.437537e+03
  2.271839e+01    1.439250e+03
  2.277140e+01    1.439328e+03
  2.282440e+01    1.436607e+03
  2.287740e+01    1.434856e+03
  2.293041e+01    1.435097e+03
  2.298341e+01    1.433216e+03
  2.303642e+01    1.432335e+03
  2.308942e+01    1.430233e+03
  2.314242e+01    1.426498e+03
  2.319543e+01    1.423414e+03
  2.324843e+01    1.419176e+03
  2.330144e+01    1.416328e+03
  2.335444e+01    1.415236e+03
  2.340744e+01    1.413144e+03
  2.346045e+01    1.412566e+03
  2.351345e+01    1.410262e+03
  2.356646e+01    1.404858e+03
  2.361946e+01    1.403961e+03
  2.367246e+01    1.403508e+03
  2.372547e+01    1.399388e+03
  2.377847e+01    1.396076e+03
  2.383148e+01    1.390165e+03
  2.388448e+01    1.388090e+03
  2.393749e+01    1.384240e+03
  2.399049e+01    1.385254e+03
  2.404349e+01    1.382249e+03
  2.409650e+01    1.380057e+03
  2.414950e+01    1.378157e+03
  2.420251e+01    1.374032e+03
  2.425551e+01    1.366485e+03
  2.430851e+01    1.361972e+03
  2.436152e+01    1.357837e+03
  2.441452e+01    1.354080e+03
  2.446753e+01    1.348997e+03
  2.452053e+01    1.344146e+03
  2.457353e+01    1.341121e+03
  2.462654e+01    1.337978e+03
  2.467954e+01    1.328927e+03
  2.473255e+01    1.320480e+03
  2.478555e+01    1.310745e+03
  2.483855e+01    1.299996e+03
  2.489156e+01    1.291378e+03
  2.494456e+01    1.282972e+03
  2.499757e+01    1.271712e+03
  2.505057e+01    1.261753e+03
  2.510358e+01    1.255597e+03
  2.515658e+01    1.248334e+03
  2.520958e+01    1.243185e+03
  2.526259e+01    1.231538e+03
  2.531559e+01    1.226454e+03
  2.536860e+01    1.220510e+03
  2.542160e+01    1.211457e+03
  2.547460e+01    1.201729e+03
  2.552761e+01    1.188790e+03
  2.558061e+01    1.189816e+03
  2.563362e+01    1.188410e+03
  2.568662e+01    1.173109e+03
  2.573962e+01    1.166036e+03
  2.579263e+01    1.153320e+03
  2.584563e+01    1.147987e+03
  2.589864e+01    1.142747e+03
  2.595164e+01    1.143280e+03
  2.600465e+01    1.141648e+03
  2.605765e+01    1.136644e+03
  2.611065e+01    1.130129e+03
  2.616366e+01    1.126881e+03
  2.621666e+01    1.119575e+03
  2.626967e+01    1.110212e+03
  2.632267e+01    1.114329e+03
  2.637567e+01    1.103993e+03
  2.642868e+01    1.081581e+03
  2.648168e+01    1.065771e+03
