# == pyFAI calibration ==
# Distance Sample to Detector: 0.2945755399789714 m
# PONI: 2.880e-01, 2.450e-01 m
# Rotations: -0.007291 -0.010887 -0.000000 rad
# 
# == Fit2d calibration ==
# Distance Sample-beamCenter: 294.601 mm
# Center: x=1437.174, y=1655.617 pix
# Tilt: 0.751 deg  TiltPlanRot: -56.193 deg
# 
# Detector Pilatus CdTe 2M	 PixelSize= 1.720e-04, 1.720e-04 m
#    Detector has a mask: True 
#    Detector has a dark current: False 
#    detector has a flat field: False 
# 
# Wavelength: 2.0732883349524408e-11 m
# Mask applied: from detector
# Dark current applied: False
# Flat field applied: False
# Polarization factor: 0.9
# Normalization factor: 1.0
# --> /gpfs/current/raw/FMue_2/FMue_2_20231024_120911_00411.dat
#        q_A^-1             I 
  3.263564e-02             nan
  8.563974e-02             nan
  1.386438e-01             nan
  1.916479e-01             nan
  2.446520e-01    3.757819e+04
  2.976561e-01    2.905926e+04
  3.506602e-01    1.561055e+04
  4.036643e-01    1.092712e+04
  4.566684e-01    9.305949e+03
  5.096725e-01    8.873253e+03
  5.626766e-01    8.562808e+03
  6.156807e-01    8.222273e+03
  6.686848e-01    8.057934e+03
  7.216890e-01    8.114354e+03
  7.746931e-01    8.114272e+03
  8.276972e-01    8.191191e+03
  8.807013e-01    8.257569e+03
  9.337054e-01    8.407845e+03
  9.867095e-01    8.552312e+03
  1.039714e+00    8.804307e+03
  1.092718e+00    9.134723e+03
  1.145722e+00    9.602486e+03
  1.198726e+00    1.019049e+04
  1.251730e+00    1.089149e+04
  1.304734e+00    1.176386e+04
  1.357738e+00    1.262674e+04
  1.410742e+00    1.329985e+04
  1.463746e+00    1.362512e+04
  1.516750e+00    1.358462e+04
  1.569755e+00    1.309020e+04
  1.622759e+00    1.244477e+04
  1.675763e+00    1.158831e+04
  1.728767e+00    1.069559e+04
  1.781771e+00    9.897998e+03
  1.834775e+00    9.235859e+03
  1.887779e+00    8.668477e+03
  1.940783e+00    8.297175e+03
  1.993787e+00    7.970977e+03
  2.046791e+00    7.779007e+03
  2.099796e+00    7.713750e+03
  2.152800e+00    7.705252e+03
  2.205804e+00    7.732253e+03
  2.258808e+00    7.715057e+03
  2.311812e+00    7.642268e+03
  2.364816e+00    7.634540e+03
  2.417820e+00    7.845208e+03
  2.470824e+00    8.402589e+03
  2.523828e+00    9.273825e+03
  2.576832e+00    9.847659e+03
  2.629837e+00    9.036355e+03
  2.682841e+00    7.864532e+03
  2.735845e+00    7.352737e+03
  2.788849e+00    6.742276e+03
  2.841853e+00    6.434482e+03
  2.894857e+00    6.895545e+03
  2.947861e+00    8.426660e+03
  3.000865e+00    1.162770e+04
  3.053869e+00    1.391166e+04
  3.106874e+00    1.186699e+04
  3.159878e+00    1.005484e+04
  3.212882e+00    8.519298e+03
  3.265886e+00    6.531798e+03
  3.318890e+00    5.667147e+03
  3.371894e+00    5.553527e+03
  3.424898e+00    5.877232e+03
  3.477902e+00    6.599622e+03
  3.530906e+00    6.625676e+03
  3.583910e+00    5.703872e+03
  3.636915e+00    5.060347e+03
  3.689919e+00    4.866768e+03
  3.742923e+00    4.851572e+03
  3.795927e+00    4.908433e+03
  3.848931e+00    5.000175e+03
  3.901935e+00    5.153502e+03
  3.954939e+00    5.379447e+03
  4.007943e+00    5.671744e+03
  4.060947e+00    6.015510e+03
  4.113951e+00    6.365862e+03
  4.166956e+00    6.804925e+03
  4.219960e+00    7.307013e+03
  4.272964e+00    7.120276e+03
  4.325968e+00    6.761451e+03
  4.378972e+00    7.342255e+03
  4.431976e+00    9.421125e+03
  4.484980e+00    1.040570e+04
  4.537984e+00    8.201394e+03
  4.590988e+00    6.173662e+03
  4.643992e+00    5.446158e+03
  4.696997e+00    5.247429e+03
  4.750001e+00    5.197403e+03
  4.803005e+00    5.242649e+03
  4.856009e+00    5.447565e+03
  4.909013e+00    5.973353e+03
  4.962017e+00    6.731050e+03
  5.015021e+00    6.606667e+03
  5.068025e+00    5.850835e+03
  5.121029e+00    5.480078e+03
  5.174033e+00    5.268869e+03
  5.227038e+00    4.961161e+03
  5.280042e+00    4.636886e+03
  5.333046e+00    4.401789e+03
  5.386050e+00    4.266685e+03
  5.439054e+00    4.268850e+03
  5.492058e+00    4.232294e+03
  5.545062e+00    3.952583e+03
  5.598066e+00    3.754630e+03
  5.651070e+00    3.713664e+03
  5.704074e+00    3.803059e+03
  5.757079e+00    4.138629e+03
  5.810083e+00    4.778516e+03
  5.863087e+00    4.860568e+03
  5.916091e+00    4.334902e+03
  5.969095e+00    4.100801e+03
  6.022099e+00    4.105803e+03
  6.075103e+00    4.209144e+03
  6.128107e+00    4.104753e+03
  6.181111e+00    3.847901e+03
  6.234115e+00    3.794049e+03
  6.287120e+00    3.848758e+03
  6.340124e+00    3.826844e+03
  6.393128e+00    3.743422e+03
  6.446132e+00    3.636106e+03
  6.499136e+00    3.577281e+03
  6.552140e+00    3.548773e+03
  6.605144e+00    3.539253e+03
  6.658148e+00    3.541473e+03
  6.711152e+00    3.488450e+03
  6.764156e+00    3.415912e+03
  6.817161e+00    3.336859e+03
  6.870165e+00    3.261444e+03
  6.923169e+00    3.208656e+03
  6.976173e+00    3.257113e+03
  7.029177e+00    3.330466e+03
  7.082181e+00    3.348519e+03
  7.135185e+00    3.274740e+03
  7.188189e+00    3.204540e+03
  7.241193e+00    3.186990e+03
  7.294197e+00    3.220088e+03
  7.347202e+00    3.226529e+03
  7.400206e+00    3.224059e+03
  7.453210e+00    3.228612e+03
  7.506214e+00    3.260645e+03
  7.559218e+00    3.319419e+03
  7.612222e+00    3.463957e+03
  7.665226e+00    3.696381e+03
  7.718230e+00    3.868437e+03
  7.771234e+00    3.801371e+03
  7.824239e+00    3.634305e+03
  7.877243e+00    3.493727e+03
  7.930247e+00    3.290861e+03
  7.983251e+00    3.143299e+03
  8.036255e+00    3.088989e+03
  8.089259e+00    3.061672e+03
  8.142263e+00    3.053365e+03
  8.195267e+00    3.046203e+03
  8.248271e+00    3.033489e+03
  8.301275e+00    3.007716e+03
  8.354280e+00    2.991302e+03
  8.407284e+00    2.980399e+03
  8.460288e+00    2.977010e+03
  8.513292e+00    2.981882e+03
  8.566296e+00    3.025082e+03
  8.619300e+00    3.050741e+03
  8.672304e+00    3.018389e+03
  8.725308e+00    2.969478e+03
  8.778312e+00    2.933085e+03
  8.831316e+00    2.919712e+03
  8.884321e+00    2.926927e+03
  8.937325e+00    2.922325e+03
  8.990329e+00    2.889914e+03
  9.043333e+00    2.846513e+03
  9.096337e+00    2.836973e+03
  9.149341e+00    2.831743e+03
  9.202345e+00    2.774495e+03
  9.255349e+00    2.709744e+03
  9.308353e+00    2.672559e+03
  9.361357e+00    2.656278e+03
  9.414362e+00    2.638651e+03
  9.467366e+00    2.640416e+03
  9.520370e+00    2.622064e+03
  9.573374e+00    2.595184e+03
  9.626378e+00    2.582424e+03
  9.679382e+00    2.578474e+03
  9.732386e+00    2.574706e+03
  9.785390e+00    2.572664e+03
  9.838394e+00    2.573515e+03
  9.891398e+00    2.584544e+03
  9.944403e+00    2.590263e+03
  9.997407e+00    2.575467e+03
  1.005041e+01    2.546594e+03
  1.010341e+01    2.505180e+03
  1.015642e+01    2.485630e+03
  1.020942e+01    2.477991e+03
  1.026243e+01    2.474337e+03
  1.031543e+01    2.498987e+03
  1.036844e+01    2.556848e+03
  1.042144e+01    2.580541e+03
  1.047444e+01    2.573529e+03
  1.052745e+01    2.548602e+03
  1.058045e+01    2.531991e+03
  1.063346e+01    2.500793e+03
  1.068646e+01    2.471237e+03
  1.073946e+01    2.450173e+03
  1.079247e+01    2.435869e+03
  1.084547e+01    2.425588e+03
  1.089848e+01    2.423451e+03
  1.095148e+01    2.422827e+03
  1.100448e+01    2.414676e+03
  1.105749e+01    2.410062e+03
  1.111049e+01    2.408963e+03
  1.116350e+01    2.398097e+03
  1.121650e+01    2.386385e+03
  1.126951e+01    2.373514e+03
  1.132251e+01    2.364390e+03
  1.137551e+01    2.356357e+03
  1.142852e+01    2.356942e+03
  1.148152e+01    2.356640e+03
  1.153453e+01    2.356764e+03
  1.158753e+01    2.353992e+03
  1.164053e+01    2.349924e+03
  1.169354e+01    2.348623e+03
  1.174654e+01    2.366964e+03
  1.179955e+01    2.353709e+03
  1.185255e+01    2.345104e+03
  1.190555e+01    2.326217e+03
  1.195856e+01    2.315132e+03
  1.201156e+01    2.302585e+03
  1.206457e+01    2.294313e+03
  1.211757e+01    2.298092e+03
  1.217057e+01    2.299684e+03
  1.222358e+01    2.296576e+03
  1.227658e+01    2.292850e+03
  1.232959e+01    2.294331e+03
  1.238259e+01    2.290182e+03
  1.243560e+01    2.291698e+03
  1.248860e+01    2.294353e+03
  1.254160e+01    2.301082e+03
  1.259461e+01    2.298220e+03
  1.264761e+01    2.289834e+03
  1.270062e+01    2.275840e+03
  1.275362e+01    2.260727e+03
  1.280662e+01    2.249506e+03
  1.285963e+01    2.242805e+03
  1.291263e+01    2.228019e+03
  1.296564e+01    2.223044e+03
  1.301864e+01    2.219080e+03
  1.307164e+01    2.214833e+03
  1.312465e+01    2.211586e+03
  1.317765e+01    2.205886e+03
  1.323066e+01    2.182729e+03
  1.328366e+01    2.174113e+03
  1.333667e+01    2.166812e+03
  1.338967e+01    2.160967e+03
  1.344267e+01    2.176571e+03
  1.349568e+01    2.174460e+03
  1.354868e+01    2.165435e+03
  1.360169e+01    2.152324e+03
  1.365469e+01    2.135782e+03
  1.370769e+01    2.128007e+03
  1.376070e+01    2.115437e+03
  1.381370e+01    2.109070e+03
  1.386671e+01    2.100436e+03
  1.391971e+01    2.092977e+03
  1.397271e+01    2.089224e+03
  1.402572e+01    2.084202e+03
  1.407872e+01    2.077931e+03
  1.413173e+01    2.072425e+03
  1.418473e+01    2.067600e+03
  1.423773e+01    2.064805e+03
  1.429074e+01    2.057807e+03
  1.434374e+01    2.058380e+03
  1.439675e+01    2.051452e+03
  1.444975e+01    2.050589e+03
  1.450276e+01    2.045240e+03
  1.455576e+01    2.038211e+03
  1.460876e+01    2.035304e+03
  1.466177e+01    2.028739e+03
  1.471477e+01    2.027874e+03
  1.476778e+01    2.031164e+03
  1.482078e+01    2.029266e+03
  1.487378e+01    2.024095e+03
  1.492679e+01    2.020569e+03
  1.497979e+01    2.014896e+03
  1.503280e+01    2.013755e+03
  1.508580e+01    2.012916e+03
  1.513880e+01    2.011031e+03
  1.519181e+01    2.018838e+03
  1.524481e+01    2.041811e+03
  1.529782e+01    2.023960e+03
  1.535082e+01    2.013267e+03
  1.540382e+01    2.007155e+03
  1.545683e+01    1.997743e+03
  1.550983e+01    2.000472e+03
  1.556284e+01    1.996031e+03
  1.561584e+01    1.991302e+03
  1.566885e+01    1.988228e+03
  1.572185e+01    1.986236e+03
  1.577485e+01    1.982815e+03
  1.582786e+01    1.977099e+03
  1.588086e+01    1.974400e+03
  1.593387e+01    1.974062e+03
  1.598687e+01    1.970779e+03
  1.603987e+01    1.964142e+03
  1.609288e+01    1.956480e+03
  1.614588e+01    1.948317e+03
  1.619889e+01    1.952080e+03
  1.625189e+01    1.954385e+03
  1.630489e+01    1.950913e+03
  1.635790e+01    1.947724e+03
  1.641090e+01    1.941973e+03
  1.646391e+01    1.937851e+03
  1.651691e+01    1.934470e+03
  1.656992e+01    1.930556e+03
  1.662292e+01    1.925541e+03
  1.667592e+01    1.924663e+03
  1.672893e+01    1.919601e+03
  1.678193e+01    1.920043e+03
  1.683494e+01    1.916468e+03
  1.688794e+01    1.915086e+03
  1.694094e+01    1.911564e+03
  1.699395e+01    1.906622e+03
  1.704695e+01    1.903893e+03
  1.709996e+01    1.899015e+03
  1.715296e+01    1.896760e+03
  1.720596e+01    1.895086e+03
  1.725897e+01    1.890324e+03
  1.731197e+01    1.887614e+03
  1.736498e+01    1.883203e+03
  1.741798e+01    1.881176e+03
  1.747098e+01    1.880743e+03
  1.752399e+01    1.877706e+03
  1.757699e+01    1.871850e+03
  1.763000e+01    1.869046e+03
  1.768300e+01    1.864660e+03
  1.773601e+01    1.860450e+03
  1.778901e+01    1.856496e+03
  1.784201e+01    1.851062e+03
  1.789502e+01    1.848206e+03
  1.794802e+01    1.843239e+03
  1.800103e+01    1.842951e+03
  1.805403e+01    1.838189e+03
  1.810703e+01    1.832508e+03
  1.816004e+01    1.830376e+03
  1.821304e+01    1.825540e+03
  1.826605e+01    1.829454e+03
  1.831905e+01    1.819883e+03
  1.837205e+01    1.816245e+03
  1.842506e+01    1.814001e+03
  1.847806e+01    1.811424e+03
  1.853107e+01    1.809568e+03
  1.858407e+01    1.809443e+03
  1.863708e+01    1.807900e+03
  1.869008e+01    1.823188e+03
  1.874308e+01    1.811264e+03
  1.879609e+01    1.805542e+03
  1.884909e+01    1.801363e+03
  1.890210e+01    1.798196e+03
  1.895510e+01    1.790468e+03
  1.900810e+01    1.787460e+03
  1.906111e+01    1.780440e+03
  1.911411e+01    1.773195e+03
  1.916712e+01    1.770403e+03
  1.922012e+01    1.767550e+03
  1.927312e+01    1.759068e+03
  1.932613e+01    1.755870e+03
  1.937913e+01    1.751862e+03
  1.943214e+01    1.746590e+03
  1.948514e+01    1.741843e+03
  1.953814e+01    1.737736e+03
  1.959115e+01    1.733251e+03
  1.964415e+01    1.727359e+03
  1.969716e+01    1.725238e+03
  1.975016e+01    1.720369e+03
  1.980317e+01    1.715056e+03
  1.985617e+01    1.710600e+03
  1.990917e+01    1.704908e+03
  1.996218e+01    1.699184e+03
  2.001518e+01    1.695648e+03
  2.006819e+01    1.689460e+03
  2.012119e+01    1.683133e+03
  2.017419e+01    1.680030e+03
  2.022720e+01    1.673286e+03
  2.028020e+01    1.665713e+03
  2.033321e+01    1.659772e+03
  2.038621e+01    1.654251e+03
  2.043921e+01    1.651933e+03
  2.049222e+01    1.645678e+03
  2.054522e+01    1.640586e+03
  2.059823e+01    1.635734e+03
  2.065123e+01    1.631403e+03
  2.070424e+01    1.628667e+03
  2.075724e+01    1.627506e+03
  2.081024e+01    1.635289e+03
  2.086325e+01    1.625178e+03
  2.091625e+01    1.607495e+03
  2.096926e+01    1.593942e+03
  2.102226e+01    1.583676e+03
  2.107526e+01    1.574830e+03
  2.112827e+01    1.564833e+03
  2.118127e+01    1.556275e+03
  2.123428e+01    1.547111e+03
  2.128728e+01    1.538863e+03
  2.134028e+01    1.530226e+03
  2.139329e+01    1.519109e+03
  2.144629e+01    1.510305e+03
  2.149930e+01    1.501575e+03
  2.155230e+01    1.493432e+03
  2.160530e+01    1.486458e+03
  2.165831e+01    1.476656e+03
  2.171131e+01    1.469418e+03
  2.176432e+01    1.466416e+03
  2.181732e+01    1.455791e+03
  2.187033e+01    1.446356e+03
  2.192333e+01    1.439082e+03
  2.197633e+01    1.429649e+03
  2.202934e+01    1.422641e+03
  2.208234e+01    1.413409e+03
  2.213535e+01    1.405215e+03
  2.218835e+01    1.396409e+03
  2.224135e+01    1.387913e+03
  2.229436e+01    1.380234e+03
  2.234736e+01    1.373984e+03
  2.240037e+01    1.364353e+03
  2.245337e+01    1.355983e+03
  2.250637e+01    1.349018e+03
  2.255938e+01    1.342011e+03
  2.261238e+01    1.345373e+03
  2.266539e+01    1.346871e+03
  2.271839e+01    1.347274e+03
  2.277140e+01    1.345985e+03
  2.282440e+01    1.344674e+03
  2.287740e+01    1.342224e+03
  2.293041e+01    1.342217e+03
  2.298341e+01    1.340700e+03
  2.303642e+01    1.342162e+03
  2.308942e+01    1.338137e+03
  2.314242e+01    1.335276e+03
  2.319543e+01    1.332295e+03
  2.324843e+01    1.327317e+03
  2.330144e+01    1.327356e+03
  2.335444e+01    1.323224e+03
  2.340744e+01    1.322099e+03
  2.346045e+01    1.322689e+03
  2.351345e+01    1.320100e+03
  2.356646e+01    1.313572e+03
  2.361946e+01    1.316245e+03
  2.367246e+01    1.314199e+03
  2.372547e+01    1.308478e+03
  2.377847e+01    1.304952e+03
  2.383148e+01    1.299730e+03
  2.388448e+01    1.298421e+03
  2.393749e+01    1.293772e+03
  2.399049e+01    1.290658e+03
  2.404349e+01    1.289836e+03
  2.409650e+01    1.281856e+03
  2.414950e+01    1.276826e+03
  2.420251e+01    1.272137e+03
  2.425551e+01    1.265311e+03
  2.430851e+01    1.260465e+03
  2.436152e+01    1.254191e+03
  2.441452e+01    1.247661e+03
  2.446753e+01    1.242616e+03
  2.452053e+01    1.235242e+03
  2.457353e+01    1.229982e+03
  2.462654e+01    1.228497e+03
  2.467954e+01    1.217396e+03
  2.473255e+01    1.210888e+03
  2.478555e+01    1.198639e+03
  2.483855e+01    1.191164e+03
  2.489156e+01    1.184581e+03
  2.494456e+01    1.176212e+03
  2.499757e+01    1.167953e+03
  2.505057e+01    1.158028e+03
  2.510358e+01    1.153118e+03
  2.515658e+01    1.147261e+03
  2.520958e+01    1.146690e+03
  2.526259e+01    1.132833e+03
  2.531559e+01    1.131005e+03
  2.536860e+01    1.126480e+03
  2.542160e+01    1.121391e+03
  2.547460e+01    1.114485e+03
  2.552761e+01    1.104027e+03
  2.558061e+01    1.100861e+03
  2.563362e+01    1.096494e+03
  2.568662e+01    1.087831e+03
  2.573962e+01    1.084844e+03
  2.579263e+01    1.075828e+03
  2.584563e+01    1.065949e+03
  2.589864e+01    1.065306e+03
  2.595164e+01    1.064379e+03
  2.600465e+01    1.056344e+03
  2.605765e+01    1.053246e+03
  2.611065e+01    1.054738e+03
  2.616366e+01    1.047625e+03
  2.621666e+01    1.045352e+03
  2.626967e+01    1.033695e+03
  2.632267e+01    1.032984e+03
  2.637567e+01    1.025186e+03
  2.642868e+01    9.996629e+02
  2.648168e+01    9.813981e+02
