# == pyFAI calibration ==
# Distance Sample to Detector: 0.2945755399789714 m
# PONI: 2.880e-01, 2.450e-01 m
# Rotations: -0.007291 -0.010887 -0.000000 rad
# 
# == Fit2d calibration ==
# Distance Sample-beamCenter: 294.601 mm
# Center: x=1437.174, y=1655.617 pix
# Tilt: 0.751 deg  TiltPlanRot: -56.193 deg
# 
# Detector Pilatus CdTe 2M	 PixelSize= 1.720e-04, 1.720e-04 m
#    Detector has a mask: True 
#    Detector has a dark current: False 
#    detector has a flat field: False 
# 
# Wavelength: 2.0732883349524408e-11 m
# Mask applied: from detector
# Dark current applied: False
# Flat field applied: False
# Polarization factor: 0.9
# Normalization factor: 1.0
# --> /gpfs/current/raw/FMue_2/FMue_2_20231024_120911_00318.dat
#        q_A^-1             I 
  3.263564e-02             nan
  8.563974e-02             nan
  1.386438e-01             nan
  1.916479e-01             nan
  2.446520e-01    3.833679e+04
  2.976561e-01    2.970437e+04
  3.506602e-01    1.592786e+04
  4.036643e-01    1.115534e+04
  4.566684e-01    9.518450e+03
  5.096725e-01    9.048790e+03
  5.626766e-01    8.740046e+03
  6.156807e-01    8.373545e+03
  6.686848e-01    8.206970e+03
  7.216890e-01    8.251135e+03
  7.746931e-01    8.248190e+03
  8.276972e-01    8.331321e+03
  8.807013e-01    8.391197e+03
  9.337054e-01    8.544648e+03
  9.867095e-01    8.695080e+03
  1.039714e+00    8.959610e+03
  1.092718e+00    9.268521e+03
  1.145722e+00    9.765969e+03
  1.198726e+00    1.034986e+04
  1.251730e+00    1.103715e+04
  1.304734e+00    1.194418e+04
  1.357738e+00    1.281925e+04
  1.410742e+00    1.350933e+04
  1.463746e+00    1.385820e+04
  1.516750e+00    1.380593e+04
  1.569755e+00    1.331563e+04
  1.622759e+00    1.264437e+04
  1.675763e+00    1.178125e+04
  1.728767e+00    1.088447e+04
  1.781771e+00    1.007832e+04
  1.834775e+00    9.411812e+03
  1.887779e+00    8.834419e+03
  1.940783e+00    8.461888e+03
  1.993787e+00    8.144781e+03
  2.046791e+00    7.955741e+03
  2.099796e+00    7.880433e+03
  2.152800e+00    7.875205e+03
  2.205804e+00    7.913812e+03
  2.258808e+00    7.918997e+03
  2.311812e+00    7.885366e+03
  2.364816e+00    7.912818e+03
  2.417820e+00    8.171850e+03
  2.470824e+00    8.775009e+03
  2.523828e+00    9.773488e+03
  2.576832e+00    1.054505e+04
  2.629837e+00    9.512014e+03
  2.682841e+00    8.094432e+03
  2.735845e+00    7.543838e+03
  2.788849e+00    6.927161e+03
  2.841853e+00    6.624095e+03
  2.894857e+00    7.216926e+03
  2.947861e+00    9.119846e+03
  3.000865e+00    1.186913e+04
  3.053869e+00    1.291453e+04
  3.106874e+00    1.110042e+04
  3.159878e+00    9.841269e+03
  3.212882e+00    8.454057e+03
  3.265886e+00    6.479576e+03
  3.318890e+00    5.600008e+03
  3.371894e+00    5.472387e+03
  3.424898e+00    5.707558e+03
  3.477902e+00    6.247074e+03
  3.530906e+00    6.237479e+03
  3.583910e+00    5.527974e+03
  3.636915e+00    5.037480e+03
  3.689919e+00    4.904490e+03
  3.742923e+00    4.904329e+03
  3.795927e+00    4.978815e+03
  3.848931e+00    5.078148e+03
  3.901935e+00    5.239906e+03
  3.954939e+00    5.467119e+03
  4.007943e+00    5.782166e+03
  4.060947e+00    6.167654e+03
  4.113951e+00    6.640121e+03
  4.166956e+00    7.369015e+03
  4.219960e+00    8.156786e+03
  4.272964e+00    7.667254e+03
  4.325968e+00    6.946168e+03
  4.378972e+00    7.419215e+03
  4.431976e+00    9.499479e+03
  4.484980e+00    1.053929e+04
  4.537984e+00    8.352958e+03
  4.590988e+00    6.299678e+03
  4.643992e+00    5.563899e+03
  4.696997e+00    5.376263e+03
  4.750001e+00    5.330867e+03
  4.803005e+00    5.387645e+03
  4.856009e+00    5.610857e+03
  4.909013e+00    6.133828e+03
  4.962017e+00    6.734960e+03
  5.015021e+00    6.519901e+03
  5.068025e+00    5.886825e+03
  5.121029e+00    5.623784e+03
  5.174033e+00    5.457094e+03
  5.227038e+00    5.088361e+03
  5.280042e+00    4.702354e+03
  5.333046e+00    4.449733e+03
  5.386050e+00    4.304352e+03
  5.439054e+00    4.305888e+03
  5.492058e+00    4.268445e+03
  5.545062e+00    3.986494e+03
  5.598066e+00    3.778062e+03
  5.651070e+00    3.725197e+03
  5.704074e+00    3.793479e+03
  5.757079e+00    4.062308e+03
  5.810083e+00    4.545016e+03
  5.863087e+00    4.617263e+03
  5.916091e+00    4.270057e+03
  5.969095e+00    4.129731e+03
  6.022099e+00    4.134648e+03
  6.075103e+00    4.186701e+03
  6.128107e+00    4.079548e+03
  6.181111e+00    3.879135e+03
  6.234115e+00    3.854622e+03
  6.287120e+00    3.926861e+03
  6.340124e+00    3.921149e+03
  6.393128e+00    3.859562e+03
  6.446132e+00    3.772531e+03
  6.499136e+00    3.732999e+03
  6.552140e+00    3.690893e+03
  6.605144e+00    3.690130e+03
  6.658148e+00    3.702962e+03
  6.711152e+00    3.617978e+03
  6.764156e+00    3.508306e+03
  6.817161e+00    3.407097e+03
  6.870165e+00    3.321990e+03
  6.923169e+00    3.267196e+03
  6.976173e+00    3.307648e+03
  7.029177e+00    3.379050e+03
  7.082181e+00    3.407360e+03
  7.135185e+00    3.343586e+03
  7.188189e+00    3.290069e+03
  7.241193e+00    3.295779e+03
  7.294197e+00    3.342919e+03
  7.347202e+00    3.330928e+03
  7.400206e+00    3.293475e+03
  7.453210e+00    3.280743e+03
  7.506214e+00    3.300072e+03
  7.559218e+00    3.348656e+03
  7.612222e+00    3.469998e+03
  7.665226e+00    3.678965e+03
  7.718230e+00    3.862515e+03
  7.771234e+00    3.813245e+03
  7.824239e+00    3.620721e+03
  7.877243e+00    3.461927e+03
  7.930247e+00    3.280732e+03
  7.983251e+00    3.158456e+03
  8.036255e+00    3.115751e+03
  8.089259e+00    3.094106e+03
  8.142263e+00    3.092309e+03
  8.195267e+00    3.087264e+03
  8.248271e+00    3.075817e+03
  8.301275e+00    3.057655e+03
  8.354280e+00    3.043648e+03
  8.407284e+00    3.036676e+03
  8.460288e+00    3.036200e+03
  8.513292e+00    3.029812e+03
  8.566296e+00    3.058813e+03
  8.619300e+00    3.075313e+03
  8.672304e+00    3.051397e+03
  8.725308e+00    3.019859e+03
  8.778312e+00    2.997502e+03
  8.831316e+00    2.988216e+03
  8.884321e+00    2.992318e+03
  8.937325e+00    2.986439e+03
  8.990329e+00    2.941822e+03
  9.043333e+00    2.885762e+03
  9.096337e+00    2.859501e+03
  9.149341e+00    2.846176e+03
  9.202345e+00    2.796125e+03
  9.255349e+00    2.749737e+03
  9.308353e+00    2.721371e+03
  9.361357e+00    2.709262e+03
  9.414362e+00    2.694409e+03
  9.467366e+00    2.695764e+03
  9.520370e+00    2.672229e+03
  9.573374e+00    2.643838e+03
  9.626378e+00    2.630825e+03
  9.679382e+00    2.626390e+03
  9.732386e+00    2.625153e+03
  9.785390e+00    2.622099e+03
  9.838394e+00    2.623649e+03
  9.891398e+00    2.626882e+03
  9.944403e+00    2.627024e+03
  9.997407e+00    2.611741e+03
  1.005041e+01    2.581256e+03
  1.010341e+01    2.542011e+03
  1.015642e+01    2.518715e+03
  1.020942e+01    2.508615e+03
  1.026243e+01    2.510068e+03
  1.031543e+01    2.528697e+03
  1.036844e+01    2.580337e+03
  1.042144e+01    2.593854e+03
  1.047444e+01    2.587622e+03
  1.052745e+01    2.570431e+03
  1.058045e+01    2.556252e+03
  1.063346e+01    2.531490e+03
  1.068646e+01    2.508767e+03
  1.073946e+01    2.488789e+03
  1.079247e+01    2.476991e+03
  1.084547e+01    2.462567e+03
  1.089848e+01    2.463385e+03
  1.095148e+01    2.459696e+03
  1.100448e+01    2.453837e+03
  1.105749e+01    2.448620e+03
  1.111049e+01    2.448902e+03
  1.116350e+01    2.438797e+03
  1.121650e+01    2.425438e+03
  1.126951e+01    2.412500e+03
  1.132251e+01    2.403281e+03
  1.137551e+01    2.394170e+03
  1.142852e+01    2.391261e+03
  1.148152e+01    2.389341e+03
  1.153453e+01    2.388752e+03
  1.158753e+01    2.382687e+03
  1.164053e+01    2.377991e+03
  1.169354e+01    2.376690e+03
  1.174654e+01    2.399896e+03
  1.179955e+01    2.388474e+03
  1.185255e+01    2.379534e+03
  1.190555e+01    2.363521e+03
  1.195856e+01    2.349062e+03
  1.201156e+01    2.339714e+03
  1.206457e+01    2.330562e+03
  1.211757e+01    2.336551e+03
  1.217057e+01    2.337494e+03
  1.222358e+01    2.334521e+03
  1.227658e+01    2.331057e+03
  1.232959e+01    2.332130e+03
  1.238259e+01    2.323991e+03
  1.243560e+01    2.328690e+03
  1.248860e+01    2.327909e+03
  1.254160e+01    2.332942e+03
  1.259461e+01    2.332189e+03
  1.264761e+01    2.321825e+03
  1.270062e+01    2.310148e+03
  1.275362e+01    2.295508e+03
  1.280662e+01    2.285386e+03
  1.285963e+01    2.278719e+03
  1.291263e+01    2.265653e+03
  1.296564e+01    2.259322e+03
  1.301864e+01    2.252703e+03
  1.307164e+01    2.247790e+03
  1.312465e+01    2.239718e+03
  1.317765e+01    2.234109e+03
  1.323066e+01    2.213552e+03
  1.328366e+01    2.207010e+03
  1.333667e+01    2.199119e+03
  1.338967e+01    2.196426e+03
  1.344267e+01    2.206760e+03
  1.349568e+01    2.205307e+03
  1.354868e+01    2.196749e+03
  1.360169e+01    2.183425e+03
  1.365469e+01    2.167963e+03
  1.370769e+01    2.160321e+03
  1.376070e+01    2.148002e+03
  1.381370e+01    2.140882e+03
  1.386671e+01    2.133273e+03
  1.391971e+01    2.126349e+03
  1.397271e+01    2.121763e+03
  1.402572e+01    2.116302e+03
  1.407872e+01    2.110669e+03
  1.413173e+01    2.105022e+03
  1.418473e+01    2.101484e+03
  1.423773e+01    2.096390e+03
  1.429074e+01    2.087963e+03
  1.434374e+01    2.090597e+03
  1.439675e+01    2.081822e+03
  1.444975e+01    2.082263e+03
  1.450276e+01    2.076643e+03
  1.455576e+01    2.069079e+03
  1.460876e+01    2.065195e+03
  1.466177e+01    2.061571e+03
  1.471477e+01    2.059904e+03
  1.476778e+01    2.062525e+03
  1.482078e+01    2.061776e+03
  1.487378e+01    2.056635e+03
  1.492679e+01    2.052325e+03
  1.497979e+01    2.045850e+03
  1.503280e+01    2.046286e+03
  1.508580e+01    2.044134e+03
  1.513880e+01    2.041535e+03
  1.519181e+01    2.046172e+03
  1.524481e+01    2.071711e+03
  1.529782e+01    2.051460e+03
  1.535082e+01    2.042561e+03
  1.540382e+01    2.036542e+03
  1.545683e+01    2.025856e+03
  1.550983e+01    2.032002e+03
  1.556284e+01    2.026378e+03
  1.561584e+01    2.022671e+03
  1.566885e+01    2.018591e+03
  1.572185e+01    2.016059e+03
  1.577485e+01    2.012172e+03
  1.582786e+01    2.008259e+03
  1.588086e+01    2.005470e+03
  1.593387e+01    2.005682e+03
  1.598687e+01    2.000911e+03
  1.603987e+01    1.993797e+03
  1.609288e+01    1.984981e+03
  1.614588e+01    1.978710e+03
  1.619889e+01    1.980079e+03
  1.625189e+01    1.982527e+03
  1.630489e+01    1.981224e+03
  1.635790e+01    1.975850e+03
  1.641090e+01    1.972540e+03
  1.646391e+01    1.967391e+03
  1.651691e+01    1.964340e+03
  1.656992e+01    1.958229e+03
  1.662292e+01    1.953459e+03
  1.667592e+01    1.952133e+03
  1.672893e+01    1.949644e+03
  1.678193e+01    1.948704e+03
  1.683494e+01    1.943260e+03
  1.688794e+01    1.943656e+03
  1.694094e+01    1.941303e+03
  1.699395e+01    1.936714e+03
  1.704695e+01    1.932073e+03
  1.709996e+01    1.929122e+03
  1.715296e+01    1.924326e+03
  1.720596e+01    1.922852e+03
  1.725897e+01    1.917786e+03
  1.731197e+01    1.915587e+03
  1.736498e+01    1.909847e+03
  1.741798e+01    1.908760e+03
  1.747098e+01    1.907665e+03
  1.752399e+01    1.905353e+03
  1.757699e+01    1.899886e+03
  1.763000e+01    1.895682e+03
  1.768300e+01    1.890726e+03
  1.773601e+01    1.888306e+03
  1.778901e+01    1.882033e+03
  1.784201e+01    1.876159e+03
  1.789502e+01    1.875731e+03
  1.794802e+01    1.869704e+03
  1.800103e+01    1.867700e+03
  1.805403e+01    1.863071e+03
  1.810703e+01    1.857565e+03
  1.816004e+01    1.854299e+03
  1.821304e+01    1.852836e+03
  1.826605e+01    1.853754e+03
  1.831905e+01    1.845346e+03
  1.837205e+01    1.842132e+03
  1.842506e+01    1.838613e+03
  1.847806e+01    1.836231e+03
  1.853107e+01    1.835259e+03
  1.858407e+01    1.834170e+03
  1.863708e+01    1.833605e+03
  1.869008e+01    1.848478e+03
  1.874308e+01    1.837040e+03
  1.879609e+01    1.831104e+03
  1.884909e+01    1.826415e+03
  1.890210e+01    1.823892e+03
  1.895510e+01    1.816129e+03
  1.900810e+01    1.814390e+03
  1.906111e+01    1.806811e+03
  1.911411e+01    1.800598e+03
  1.916712e+01    1.795805e+03
  1.922012e+01    1.793949e+03
  1.927312e+01    1.786334e+03
  1.932613e+01    1.782824e+03
  1.937913e+01    1.777332e+03
  1.943214e+01    1.771613e+03
  1.948514e+01    1.769372e+03
  1.953814e+01    1.761837e+03
  1.959115e+01    1.758622e+03
  1.964415e+01    1.752502e+03
  1.969716e+01    1.749791e+03
  1.975016e+01    1.744425e+03
  1.980317e+01    1.740697e+03
  1.985617e+01    1.735745e+03
  1.990917e+01    1.729337e+03
  1.996218e+01    1.724304e+03
  2.001518e+01    1.721043e+03
  2.006819e+01    1.713436e+03
  2.012119e+01    1.707131e+03
  2.017419e+01    1.702596e+03
  2.022720e+01    1.697292e+03
  2.028020e+01    1.691053e+03
  2.033321e+01    1.683569e+03
  2.038621e+01    1.679215e+03
  2.043921e+01    1.673569e+03
  2.049222e+01    1.670564e+03
  2.054522e+01    1.663548e+03
  2.059823e+01    1.660525e+03
  2.065123e+01    1.653347e+03
  2.070424e+01    1.652211e+03
  2.075724e+01    1.650970e+03
  2.081024e+01    1.656735e+03
  2.086325e+01    1.645798e+03
  2.091625e+01    1.630268e+03
  2.096926e+01    1.615806e+03
  2.102226e+01    1.605797e+03
  2.107526e+01    1.596178e+03
  2.112827e+01    1.584916e+03
  2.118127e+01    1.578196e+03
  2.123428e+01    1.567268e+03
  2.128728e+01    1.559654e+03
  2.134028e+01    1.550325e+03
  2.139329e+01    1.539485e+03
  2.144629e+01    1.530403e+03
  2.149930e+01    1.522638e+03
  2.155230e+01    1.513880e+03
  2.160530e+01    1.505878e+03
  2.165831e+01    1.496613e+03
  2.171131e+01    1.490590e+03
  2.176432e+01    1.484496e+03
  2.181732e+01    1.475909e+03
  2.187033e+01    1.464418e+03
  2.192333e+01    1.459291e+03
  2.197633e+01    1.449025e+03
  2.202934e+01    1.442659e+03
  2.208234e+01    1.432396e+03
  2.213535e+01    1.423502e+03
  2.218835e+01    1.415867e+03
  2.224135e+01    1.407269e+03
  2.229436e+01    1.399107e+03
  2.234736e+01    1.391701e+03
  2.240037e+01    1.383150e+03
  2.245337e+01    1.374098e+03
  2.250637e+01    1.367545e+03
  2.255938e+01    1.359907e+03
  2.261238e+01    1.361309e+03
  2.266539e+01    1.362893e+03
  2.271839e+01    1.365022e+03
  2.277140e+01    1.364171e+03
  2.282440e+01    1.362417e+03
  2.287740e+01    1.359323e+03
  2.293041e+01    1.359587e+03
  2.298341e+01    1.359384e+03
  2.303642e+01    1.361084e+03
  2.308942e+01    1.355608e+03
  2.314242e+01    1.354789e+03
  2.319543e+01    1.350104e+03
  2.324843e+01    1.346161e+03
  2.330144e+01    1.345505e+03
  2.335444e+01    1.343378e+03
  2.340744e+01    1.341236e+03
  2.346045e+01    1.340697e+03
  2.351345e+01    1.337839e+03
  2.356646e+01    1.332609e+03
  2.361946e+01    1.331752e+03
  2.367246e+01    1.332344e+03
  2.372547e+01    1.328622e+03
  2.377847e+01    1.322974e+03
  2.383148e+01    1.317409e+03
  2.388448e+01    1.314746e+03
  2.393749e+01    1.309368e+03
  2.399049e+01    1.306390e+03
  2.404349e+01    1.304957e+03
  2.409650e+01    1.300256e+03
  2.414950e+01    1.292625e+03
  2.420251e+01    1.288165e+03
  2.425551e+01    1.283367e+03
  2.430851e+01    1.277388e+03
  2.436152e+01    1.271157e+03
  2.441452e+01    1.264053e+03
  2.446753e+01    1.260003e+03
  2.452053e+01    1.251330e+03
  2.457353e+01    1.244253e+03
  2.462654e+01    1.246534e+03
  2.467954e+01    1.235307e+03
  2.473255e+01    1.225853e+03
  2.478555e+01    1.216610e+03
  2.483855e+01    1.207324e+03
  2.489156e+01    1.197197e+03
  2.494456e+01    1.190296e+03
  2.499757e+01    1.182328e+03
  2.505057e+01    1.170783e+03
  2.510358e+01    1.166618e+03
  2.515658e+01    1.162188e+03
  2.520958e+01    1.159192e+03
  2.526259e+01    1.149386e+03
  2.531559e+01    1.145900e+03
  2.536860e+01    1.139140e+03
  2.542160e+01    1.132512e+03
  2.547460e+01    1.125646e+03
  2.552761e+01    1.117602e+03
  2.558061e+01    1.116501e+03
  2.563362e+01    1.110924e+03
  2.568662e+01    1.102152e+03
  2.573962e+01    1.097554e+03
  2.579263e+01    1.087957e+03
  2.584563e+01    1.084701e+03
  2.589864e+01    1.077913e+03
  2.595164e+01    1.073291e+03
  2.600465e+01    1.073835e+03
  2.605765e+01    1.069556e+03
  2.611065e+01    1.070382e+03
  2.616366e+01    1.063505e+03
  2.621666e+01    1.055900e+03
  2.626967e+01    1.049679e+03
  2.632267e+01    1.040966e+03
  2.637567e+01    1.031969e+03
  2.642868e+01    1.014270e+03
  2.648168e+01    1.008387e+03
