# == pyFAI calibration ==
# Distance Sample to Detector: 0.2945755399789714 m
# PONI: 2.880e-01, 2.450e-01 m
# Rotations: -0.007291 -0.010887 -0.000000 rad
# 
# == Fit2d calibration ==
# Distance Sample-beamCenter: 294.601 mm
# Center: x=1437.174, y=1655.617 pix
# Tilt: 0.751 deg  TiltPlanRot: -56.193 deg
# 
# Detector Pilatus CdTe 2M	 PixelSize= 1.720e-04, 1.720e-04 m
#    Detector has a mask: True 
#    Detector has a dark current: False 
#    detector has a flat field: False 
# 
# Wavelength: 2.0732883349524408e-11 m
# Mask applied: from detector
# Dark current applied: False
# Flat field applied: False
# Polarization factor: 0.9
# Normalization factor: 1.0
# --> /gpfs/current/raw/FMue_2/FMue_2_20231024_120911_00193.dat
#        q_A^-1             I 
  3.263564e-02             nan
  8.563974e-02             nan
  1.386438e-01             nan
  1.916479e-01             nan
  2.446520e-01    3.881516e+04
  2.976561e-01    3.000179e+04
  3.506602e-01    1.594589e+04
  4.036643e-01    1.117465e+04
  4.566684e-01    9.551884e+03
  5.096725e-01    9.146274e+03
  5.626766e-01    8.853962e+03
  6.156807e-01    8.495059e+03
  6.686848e-01    8.319545e+03
  7.216890e-01    8.351959e+03
  7.746931e-01    8.343152e+03
  8.276972e-01    8.414507e+03
  8.807013e-01    8.472013e+03
  9.337054e-01    8.610950e+03
  9.867095e-01    8.764990e+03
  1.039714e+00    9.017828e+03
  1.092718e+00    9.338477e+03
  1.145722e+00    9.817797e+03
  1.198726e+00    1.040444e+04
  1.251730e+00    1.110876e+04
  1.304734e+00    1.200883e+04
  1.357738e+00    1.285480e+04
  1.410742e+00    1.355091e+04
  1.463746e+00    1.390012e+04
  1.516750e+00    1.385471e+04
  1.569755e+00    1.336508e+04
  1.622759e+00    1.271545e+04
  1.675763e+00    1.185991e+04
  1.728767e+00    1.098243e+04
  1.781771e+00    1.018310e+04
  1.834775e+00    9.527517e+03
  1.887779e+00    8.965129e+03
  1.940783e+00    8.605552e+03
  1.993787e+00    8.308982e+03
  2.046791e+00    8.148067e+03
  2.099796e+00    8.097577e+03
  2.152800e+00    8.111675e+03
  2.205804e+00    8.191774e+03
  2.258808e+00    8.271462e+03
  2.311812e+00    8.307518e+03
  2.364816e+00    8.376292e+03
  2.417820e+00    8.697543e+03
  2.470824e+00    9.433607e+03
  2.523828e+00    1.101594e+04
  2.576832e+00    1.294653e+04
  2.629837e+00    1.102966e+04
  2.682841e+00    8.492287e+03
  2.735845e+00    7.765814e+03
  2.788849e+00    7.126878e+03
  2.841853e+00    6.814026e+03
  2.894857e+00    7.780670e+03
  2.947861e+00    1.123819e+04
  3.000865e+00    1.295148e+04
  3.053869e+00    9.553048e+03
  3.106874e+00    8.049611e+03
  3.159878e+00    8.620659e+03
  3.212882e+00    7.901782e+03
  3.265886e+00    6.034857e+03
  3.318890e+00    5.102104e+03
  3.371894e+00    4.862201e+03
  3.424898e+00    4.768310e+03
  3.477902e+00    4.730223e+03
  3.530906e+00    4.706532e+03
  3.583910e+00    4.681270e+03
  3.636915e+00    4.702146e+03
  3.689919e+00    4.750067e+03
  3.742923e+00    4.822986e+03
  3.795927e+00    4.945226e+03
  3.848931e+00    5.092388e+03
  3.901935e+00    5.278607e+03
  3.954939e+00    5.505722e+03
  4.007943e+00    5.845019e+03
  4.060947e+00    6.353698e+03
  4.113951e+00    7.156758e+03
  4.166956e+00    8.905428e+03
  4.219960e+00    1.105970e+04
  4.272964e+00    9.537069e+03
  4.325968e+00    7.288121e+03
  4.378972e+00    7.336243e+03
  4.431976e+00    9.370804e+03
  4.484980e+00    1.071590e+04
  4.537984e+00    8.665394e+03
  4.590988e+00    6.486112e+03
  4.643992e+00    5.678932e+03
  4.696997e+00    5.471095e+03
  4.750001e+00    5.429207e+03
  4.803005e+00    5.493535e+03
  4.856009e+00    5.778901e+03
  4.909013e+00    6.373888e+03
  4.962017e+00    6.664919e+03
  5.015021e+00    6.088949e+03
  5.068025e+00    5.701564e+03
  5.121029e+00    5.858747e+03
  5.174033e+00    5.981015e+03
  5.227038e+00    5.377008e+03
  5.280042e+00    4.725040e+03
  5.333046e+00    4.389911e+03
  5.386050e+00    4.221620e+03
  5.439054e+00    4.206044e+03
  5.492058e+00    4.190487e+03
  5.545062e+00    3.901540e+03
  5.598066e+00    3.654603e+03
  5.651070e+00    3.557018e+03
  5.704074e+00    3.521623e+03
  5.757079e+00    3.531464e+03
  5.810083e+00    3.575687e+03
  5.863087e+00    3.670319e+03
  5.916091e+00    3.874506e+03
  5.969095e+00    4.085141e+03
  6.022099e+00    4.055752e+03
  6.075103e+00    3.926253e+03
  6.128107e+00    3.840273e+03
  6.181111e+00    3.805397e+03
  6.234115e+00    3.868902e+03
  6.287120e+00    4.004038e+03
  6.340124e+00    4.050714e+03
  6.393128e+00    4.057257e+03
  6.446132e+00    4.070421e+03
  6.499136e+00    4.118493e+03
  6.552140e+00    4.055049e+03
  6.605144e+00    4.062971e+03
  6.658148e+00    4.185265e+03
  6.711152e+00    4.036244e+03
  6.764156e+00    3.710240e+03
  6.817161e+00    3.500308e+03
  6.870165e+00    3.375374e+03
  6.923169e+00    3.297079e+03
  6.976173e+00    3.317834e+03
  7.029177e+00    3.376574e+03
  7.082181e+00    3.426617e+03
  7.135185e+00    3.412567e+03
  7.188189e+00    3.405077e+03
  7.241193e+00    3.498820e+03
  7.294197e+00    3.662477e+03
  7.347202e+00    3.610109e+03
  7.400206e+00    3.413409e+03
  7.453210e+00    3.299493e+03
  7.506214e+00    3.273531e+03
  7.559218e+00    3.270719e+03
  7.612222e+00    3.315401e+03
  7.665226e+00    3.466034e+03
  7.718230e+00    3.718895e+03
  7.771234e+00    3.748052e+03
  7.824239e+00    3.474863e+03
  7.877243e+00    3.235916e+03
  7.930247e+00    3.107548e+03
  7.983251e+00    3.062335e+03
  8.036255e+00    3.053633e+03
  8.089259e+00    3.053506e+03
  8.142263e+00    3.067238e+03
  8.195267e+00    3.077303e+03
  8.248271e+00    3.076689e+03
  8.301275e+00    3.069515e+03
  8.354280e+00    3.076984e+03
  8.407284e+00    3.093138e+03
  8.460288e+00    3.092083e+03
  8.513292e+00    3.047630e+03
  8.566296e+00    3.026539e+03
  8.619300e+00    3.015463e+03
  8.672304e+00    3.024017e+03
  8.725308e+00    3.053011e+03
  8.778312e+00    3.084430e+03
  8.831316e+00    3.106865e+03
  8.884321e+00    3.112521e+03
  8.937325e+00    3.099733e+03
  8.990329e+00    3.027199e+03
  9.043333e+00    2.903488e+03
  9.096337e+00    2.816571e+03
  9.149341e+00    2.773376e+03
  9.202345e+00    2.755390e+03
  9.255349e+00    2.748319e+03
  9.308353e+00    2.746806e+03
  9.361357e+00    2.761152e+03
  9.414362e+00    2.765143e+03
  9.467366e+00    2.771219e+03
  9.520370e+00    2.731383e+03
  9.573374e+00    2.689927e+03
  9.626378e+00    2.667978e+03
  9.679382e+00    2.666155e+03
  9.732386e+00    2.672972e+03
  9.785390e+00    2.678300e+03
  9.838394e+00    2.674884e+03
  9.891398e+00    2.669473e+03
  9.944403e+00    2.650259e+03
  9.997407e+00    2.623643e+03
  1.005041e+01    2.593769e+03
  1.010341e+01    2.549090e+03
  1.015642e+01    2.524480e+03
  1.020942e+01    2.513084e+03
  1.026243e+01    2.506933e+03
  1.031543e+01    2.516833e+03
  1.036844e+01    2.537165e+03
  1.042144e+01    2.533952e+03
  1.047444e+01    2.540080e+03
  1.052745e+01    2.535026e+03
  1.058045e+01    2.539791e+03
  1.063346e+01    2.541040e+03
  1.068646e+01    2.536226e+03
  1.073946e+01    2.518111e+03
  1.079247e+01    2.502896e+03
  1.084547e+01    2.484763e+03
  1.089848e+01    2.482636e+03
  1.095148e+01    2.479802e+03
  1.100448e+01    2.478109e+03
  1.105749e+01    2.476135e+03
  1.111049e+01    2.482872e+03
  1.116350e+01    2.476626e+03
  1.121650e+01    2.461997e+03
  1.126951e+01    2.440502e+03
  1.132251e+01    2.428148e+03
  1.137551e+01    2.417966e+03
  1.142852e+01    2.411399e+03
  1.148152e+01    2.398037e+03
  1.153453e+01    2.384440e+03
  1.158753e+01    2.374026e+03
  1.164053e+01    2.368682e+03
  1.169354e+01    2.370638e+03
  1.174654e+01    2.401368e+03
  1.179955e+01    2.400355e+03
  1.185255e+01    2.396881e+03
  1.190555e+01    2.384663e+03
  1.195856e+01    2.370310e+03
  1.201156e+01    2.360954e+03
  1.206457e+01    2.354089e+03
  1.211757e+01    2.359758e+03
  1.217057e+01    2.363811e+03
  1.222358e+01    2.363931e+03
  1.227658e+01    2.361267e+03
  1.232959e+01    2.358508e+03
  1.238259e+01    2.348332e+03
  1.243560e+01    2.346747e+03
  1.248860e+01    2.342092e+03
  1.254160e+01    2.343140e+03
  1.259461e+01    2.341990e+03
  1.264761e+01    2.336422e+03
  1.270062e+01    2.324392e+03
  1.275362e+01    2.314465e+03
  1.280662e+01    2.307569e+03
  1.285963e+01    2.302619e+03
  1.291263e+01    2.290982e+03
  1.296564e+01    2.278643e+03
  1.301864e+01    2.270439e+03
  1.307164e+01    2.257822e+03
  1.312465e+01    2.249207e+03
  1.317765e+01    2.239064e+03
  1.323066e+01    2.221017e+03
  1.328366e+01    2.215407e+03
  1.333667e+01    2.209755e+03
  1.338967e+01    2.208152e+03
  1.344267e+01    2.219152e+03
  1.349568e+01    2.214694e+03
  1.354868e+01    2.208870e+03
  1.360169e+01    2.199943e+03
  1.365469e+01    2.188032e+03
  1.370769e+01    2.177353e+03
  1.376070e+01    2.163792e+03
  1.381370e+01    2.156021e+03
  1.386671e+01    2.146565e+03
  1.391971e+01    2.140300e+03
  1.397271e+01    2.138174e+03
  1.402572e+01    2.133675e+03
  1.407872e+01    2.125505e+03
  1.413173e+01    2.118567e+03
  1.418473e+01    2.116189e+03
  1.423773e+01    2.110353e+03
  1.429074e+01    2.101732e+03
  1.434374e+01    2.101485e+03
  1.439675e+01    2.094172e+03
  1.444975e+01    2.091444e+03
  1.450276e+01    2.087669e+03
  1.455576e+01    2.082189e+03
  1.460876e+01    2.081740e+03
  1.466177e+01    2.078625e+03
  1.471477e+01    2.077909e+03
  1.476778e+01    2.081610e+03
  1.482078e+01    2.081467e+03
  1.487378e+01    2.075771e+03
  1.492679e+01    2.071366e+03
  1.497979e+01    2.066826e+03
  1.503280e+01    2.063811e+03
  1.508580e+01    2.059716e+03
  1.513880e+01    2.058876e+03
  1.519181e+01    2.064056e+03
  1.524481e+01    2.087741e+03
  1.529782e+01    2.067829e+03
  1.535082e+01    2.058411e+03
  1.540382e+01    2.051263e+03
  1.545683e+01    2.043137e+03
  1.550983e+01    2.047228e+03
  1.556284e+01    2.044095e+03
  1.561584e+01    2.036976e+03
  1.566885e+01    2.031871e+03
  1.572185e+01    2.029582e+03
  1.577485e+01    2.026406e+03
  1.582786e+01    2.023731e+03
  1.588086e+01    2.020218e+03
  1.593387e+01    2.019070e+03
  1.598687e+01    2.014957e+03
  1.603987e+01    2.005857e+03
  1.609288e+01    2.000262e+03
  1.614588e+01    1.993170e+03
  1.619889e+01    1.993399e+03
  1.625189e+01    1.997791e+03
  1.630489e+01    1.992890e+03
  1.635790e+01    1.991212e+03
  1.641090e+01    1.986675e+03
  1.646391e+01    1.981567e+03
  1.651691e+01    1.979403e+03
  1.656992e+01    1.973287e+03
  1.662292e+01    1.969675e+03
  1.667592e+01    1.969382e+03
  1.672893e+01    1.965778e+03
  1.678193e+01    1.967207e+03
  1.683494e+01    1.962224e+03
  1.688794e+01    1.961789e+03
  1.694094e+01    1.959884e+03
  1.699395e+01    1.955035e+03
  1.704695e+01    1.950577e+03
  1.709996e+01    1.948404e+03
  1.715296e+01    1.944919e+03
  1.720596e+01    1.940772e+03
  1.725897e+01    1.937359e+03
  1.731197e+01    1.934131e+03
  1.736498e+01    1.928853e+03
  1.741798e+01    1.926643e+03
  1.747098e+01    1.925584e+03
  1.752399e+01    1.922525e+03
  1.757699e+01    1.916374e+03
  1.763000e+01    1.914024e+03
  1.768300e+01    1.908024e+03
  1.773601e+01    1.905323e+03
  1.778901e+01    1.900501e+03
  1.784201e+01    1.893947e+03
  1.789502e+01    1.893440e+03
  1.794802e+01    1.887078e+03
  1.800103e+01    1.886562e+03
  1.805403e+01    1.882604e+03
  1.810703e+01    1.876171e+03
  1.816004e+01    1.872478e+03
  1.821304e+01    1.869936e+03
  1.826605e+01    1.872902e+03
  1.831905e+01    1.865354e+03
  1.837205e+01    1.861847e+03
  1.842506e+01    1.858949e+03
  1.847806e+01    1.857187e+03
  1.853107e+01    1.854670e+03
  1.858407e+01    1.852102e+03
  1.863708e+01    1.852534e+03
  1.869008e+01    1.867798e+03
  1.874308e+01    1.858032e+03
  1.879609e+01    1.853380e+03
  1.884909e+01    1.849707e+03
  1.890210e+01    1.845245e+03
  1.895510e+01    1.838366e+03
  1.900810e+01    1.837814e+03
  1.906111e+01    1.829009e+03
  1.911411e+01    1.822704e+03
  1.916712e+01    1.819603e+03
  1.922012e+01    1.815976e+03
  1.927312e+01    1.809339e+03
  1.932613e+01    1.806509e+03
  1.937913e+01    1.802025e+03
  1.943214e+01    1.797373e+03
  1.948514e+01    1.793423e+03
  1.953814e+01    1.787897e+03
  1.959115e+01    1.783042e+03
  1.964415e+01    1.777129e+03
  1.969716e+01    1.774437e+03
  1.975016e+01    1.769750e+03
  1.980317e+01    1.765130e+03
  1.985617e+01    1.760815e+03
  1.990917e+01    1.754376e+03
  1.996218e+01    1.749076e+03
  2.001518e+01    1.746366e+03
  2.006819e+01    1.738594e+03
  2.012119e+01    1.732113e+03
  2.017419e+01    1.728713e+03
  2.022720e+01    1.723247e+03
  2.028020e+01    1.715083e+03
  2.033321e+01    1.709614e+03
  2.038621e+01    1.703014e+03
  2.043921e+01    1.699472e+03
  2.049222e+01    1.695720e+03
  2.054522e+01    1.690412e+03
  2.059823e+01    1.685949e+03
  2.065123e+01    1.680470e+03
  2.070424e+01    1.676973e+03
  2.075724e+01    1.674705e+03
  2.081024e+01    1.681906e+03
  2.086325e+01    1.673208e+03
  2.091625e+01    1.656074e+03
  2.096926e+01    1.643312e+03
  2.102226e+01    1.632544e+03
  2.107526e+01    1.624153e+03
  2.112827e+01    1.612966e+03
  2.118127e+01    1.604393e+03
  2.123428e+01    1.595041e+03
  2.128728e+01    1.586094e+03
  2.134028e+01    1.577346e+03
  2.139329e+01    1.566138e+03
  2.144629e+01    1.556885e+03
  2.149930e+01    1.549991e+03
  2.155230e+01    1.540984e+03
  2.160530e+01    1.534042e+03
  2.165831e+01    1.524006e+03
  2.171131e+01    1.516820e+03
  2.176432e+01    1.511955e+03
  2.181732e+01    1.501461e+03
  2.187033e+01    1.492466e+03
  2.192333e+01    1.486356e+03
  2.197633e+01    1.475913e+03
  2.202934e+01    1.468916e+03
  2.208234e+01    1.457839e+03
  2.213535e+01    1.450181e+03
  2.218835e+01    1.440882e+03
  2.224135e+01    1.432298e+03
  2.229436e+01    1.424768e+03
  2.234736e+01    1.417775e+03
  2.240037e+01    1.407573e+03
  2.245337e+01    1.399493e+03
  2.250637e+01    1.392237e+03
  2.255938e+01    1.385117e+03
  2.261238e+01    1.387582e+03
  2.266539e+01    1.386972e+03
  2.271839e+01    1.388567e+03
  2.277140e+01    1.388471e+03
  2.282440e+01    1.386901e+03
  2.287740e+01    1.384672e+03
  2.293041e+01    1.383960e+03
  2.298341e+01    1.382668e+03
  2.303642e+01    1.383397e+03
  2.308942e+01    1.380231e+03
  2.314242e+01    1.377582e+03
  2.319543e+01    1.374647e+03
  2.324843e+01    1.368633e+03
  2.330144e+01    1.368426e+03
  2.335444e+01    1.365958e+03
  2.340744e+01    1.365204e+03
  2.346045e+01    1.364239e+03
  2.351345e+01    1.360815e+03
  2.356646e+01    1.355514e+03
  2.361946e+01    1.354225e+03
  2.367246e+01    1.355528e+03
  2.372547e+01    1.350573e+03
  2.377847e+01    1.346100e+03
  2.383148e+01    1.342215e+03
  2.388448e+01    1.337743e+03
  2.393749e+01    1.333835e+03
  2.399049e+01    1.333924e+03
  2.404349e+01    1.330247e+03
  2.409650e+01    1.326307e+03
  2.414950e+01    1.319438e+03
  2.420251e+01    1.314283e+03
  2.425551e+01    1.308709e+03
  2.430851e+01    1.305113e+03
  2.436152e+01    1.295553e+03
  2.441452e+01    1.292392e+03
  2.446753e+01    1.288407e+03
  2.452053e+01    1.279084e+03
  2.457353e+01    1.275013e+03
  2.462654e+01    1.274540e+03
  2.467954e+01    1.263559e+03
  2.473255e+01    1.255721e+03
  2.478555e+01    1.244377e+03
  2.483855e+01    1.234658e+03
  2.489156e+01    1.227332e+03
  2.494456e+01    1.217032e+03
  2.499757e+01    1.209134e+03
  2.505057e+01    1.199085e+03
  2.510358e+01    1.190972e+03
  2.515658e+01    1.187137e+03
  2.520958e+01    1.183829e+03
  2.526259e+01    1.175601e+03
  2.531559e+01    1.171032e+03
  2.536860e+01    1.164712e+03
  2.542160e+01    1.159394e+03
  2.547460e+01    1.148333e+03
  2.552761e+01    1.139344e+03
  2.558061e+01    1.137526e+03
  2.563362e+01    1.135194e+03
  2.568662e+01    1.123340e+03
  2.573962e+01    1.115727e+03
  2.579263e+01    1.106462e+03
  2.584563e+01    1.099807e+03
  2.589864e+01    1.098783e+03
  2.595164e+01    1.091811e+03
  2.600465e+01    1.094093e+03
  2.605765e+01    1.090925e+03
  2.611065e+01    1.086918e+03
  2.616366e+01    1.082814e+03
  2.621666e+01    1.073971e+03
  2.626967e+01    1.066455e+03
  2.632267e+01    1.069330e+03
  2.637567e+01    1.054921e+03
  2.642868e+01    1.033694e+03
  2.648168e+01    1.025561e+03
