# == pyFAI calibration ==
# Distance Sample to Detector: 0.2945755399789714 m
# PONI: 2.880e-01, 2.450e-01 m
# Rotations: -0.007291 -0.010887 -0.000000 rad
# 
# == Fit2d calibration ==
# Distance Sample-beamCenter: 294.601 mm
# Center: x=1437.174, y=1655.617 pix
# Tilt: 0.751 deg  TiltPlanRot: -56.193 deg
# 
# Detector Pilatus CdTe 2M	 PixelSize= 1.720e-04, 1.720e-04 m
#    Detector has a mask: True 
#    Detector has a dark current: False 
#    detector has a flat field: False 
# 
# Wavelength: 2.0732883349524408e-11 m
# Mask applied: from detector
# Dark current applied: False
# Flat field applied: False
# Polarization factor: 0.9
# Normalization factor: 1.0
# --> /gpfs/current/raw/FMue_2/FMue_2_20231024_120911_00151.dat
#        q_A^-1             I 
  3.263564e-02             nan
  8.563974e-02             nan
  1.386438e-01             nan
  1.916479e-01             nan
  2.446520e-01    3.895146e+04
  2.976561e-01    3.001529e+04
  3.506602e-01    1.591008e+04
  4.036643e-01    1.113138e+04
  4.566684e-01    9.521682e+03
  5.096725e-01    9.110632e+03
  5.626766e-01    8.829458e+03
  6.156807e-01    8.477757e+03
  6.686848e-01    8.300052e+03
  7.216890e-01    8.335727e+03
  7.746931e-01    8.337815e+03
  8.276972e-01    8.397023e+03
  8.807013e-01    8.463892e+03
  9.337054e-01    8.599228e+03
  9.867095e-01    8.750236e+03
  1.039714e+00    8.999576e+03
  1.092718e+00    9.325900e+03
  1.145722e+00    9.803712e+03
  1.198726e+00    1.038760e+04
  1.251730e+00    1.108803e+04
  1.304734e+00    1.197876e+04
  1.357738e+00    1.283582e+04
  1.410742e+00    1.353480e+04
  1.463746e+00    1.386443e+04
  1.516750e+00    1.383300e+04
  1.569755e+00    1.334618e+04
  1.622759e+00    1.270473e+04
  1.675763e+00    1.184583e+04
  1.728767e+00    1.097217e+04
  1.781771e+00    1.016988e+04
  1.834775e+00    9.511253e+03
  1.887779e+00    8.951735e+03
  1.940783e+00    8.597257e+03
  1.993787e+00    8.298847e+03
  2.046791e+00    8.128969e+03
  2.099796e+00    8.080064e+03
  2.152800e+00    8.100479e+03
  2.205804e+00    8.181322e+03
  2.258808e+00    8.249537e+03
  2.311812e+00    8.285275e+03
  2.364816e+00    8.351594e+03
  2.417820e+00    8.674734e+03
  2.470824e+00    9.408692e+03
  2.523828e+00    1.098226e+04
  2.576832e+00    1.293058e+04
  2.629837e+00    1.102296e+04
  2.682841e+00    8.480897e+03
  2.735845e+00    7.750423e+03
  2.788849e+00    7.116352e+03
  2.841853e+00    6.800635e+03
  2.894857e+00    7.762406e+03
  2.947861e+00    1.122139e+04
  3.000865e+00    1.295104e+04
  3.053869e+00    9.548834e+03
  3.106874e+00    8.033874e+03
  3.159878e+00    8.603003e+03
  3.212882e+00    7.884136e+03
  3.265886e+00    6.022064e+03
  3.318890e+00    5.095117e+03
  3.371894e+00    4.852682e+03
  3.424898e+00    4.756513e+03
  3.477902e+00    4.717466e+03
  3.530906e+00    4.688158e+03
  3.583910e+00    4.670075e+03
  3.636915e+00    4.688886e+03
  3.689919e+00    4.737244e+03
  3.742923e+00    4.818720e+03
  3.795927e+00    4.936558e+03
  3.848931e+00    5.081647e+03
  3.901935e+00    5.266327e+03
  3.954939e+00    5.489693e+03
  4.007943e+00    5.837547e+03
  4.060947e+00    6.338323e+03
  4.113951e+00    7.138286e+03
  4.166956e+00    8.881370e+03
  4.219960e+00    1.103880e+04
  4.272964e+00    9.547547e+03
  4.325968e+00    7.284050e+03
  4.378972e+00    7.324130e+03
  4.431976e+00    9.346399e+03
  4.484980e+00    1.069280e+04
  4.537984e+00    8.660818e+03
  4.590988e+00    6.481372e+03
  4.643992e+00    5.668856e+03
  4.696997e+00    5.451952e+03
  4.750001e+00    5.411736e+03
  4.803005e+00    5.481397e+03
  4.856009e+00    5.765831e+03
  4.909013e+00    6.355248e+03
  4.962017e+00    6.654007e+03
  5.015021e+00    6.082787e+03
  5.068025e+00    5.689164e+03
  5.121029e+00    5.844031e+03
  5.174033e+00    5.976107e+03
  5.227038e+00    5.376963e+03
  5.280042e+00    4.718676e+03
  5.333046e+00    4.381523e+03
  5.386050e+00    4.209640e+03
  5.439054e+00    4.196296e+03
  5.492058e+00    4.185458e+03
  5.545062e+00    3.894261e+03
  5.598066e+00    3.646771e+03
  5.651070e+00    3.549938e+03
  5.704074e+00    3.516257e+03
  5.757079e+00    3.522022e+03
  5.810083e+00    3.565120e+03
  5.863087e+00    3.659504e+03
  5.916091e+00    3.864657e+03
  5.969095e+00    4.077516e+03
  6.022099e+00    4.049334e+03
  6.075103e+00    3.919471e+03
  6.128107e+00    3.828914e+03
  6.181111e+00    3.799549e+03
  6.234115e+00    3.864646e+03
  6.287120e+00    3.991063e+03
  6.340124e+00    4.046133e+03
  6.393128e+00    4.045874e+03
  6.446132e+00    4.060258e+03
  6.499136e+00    4.108825e+03
  6.552140e+00    4.046805e+03
  6.605144e+00    4.055860e+03
  6.658148e+00    4.179986e+03
  6.711152e+00    4.032423e+03
  6.764156e+00    3.708878e+03
  6.817161e+00    3.496238e+03
  6.870165e+00    3.368761e+03
  6.923169e+00    3.290389e+03
  6.976173e+00    3.311183e+03
  7.029177e+00    3.370062e+03
  7.082181e+00    3.419095e+03
  7.135185e+00    3.408066e+03
  7.188189e+00    3.399417e+03
  7.241193e+00    3.492312e+03
  7.294197e+00    3.655218e+03
  7.347202e+00    3.608534e+03
  7.400206e+00    3.410871e+03
  7.453210e+00    3.298145e+03
  7.506214e+00    3.268197e+03
  7.559218e+00    3.265236e+03
  7.612222e+00    3.310198e+03
  7.665226e+00    3.458975e+03
  7.718230e+00    3.710015e+03
  7.771234e+00    3.743710e+03
  7.824239e+00    3.471527e+03
  7.877243e+00    3.229939e+03
  7.930247e+00    3.103552e+03
  7.983251e+00    3.054693e+03
  8.036255e+00    3.047420e+03
  8.089259e+00    3.050689e+03
  8.142263e+00    3.062021e+03
  8.195267e+00    3.069059e+03
  8.248271e+00    3.073253e+03
  8.301275e+00    3.066928e+03
  8.354280e+00    3.070647e+03
  8.407284e+00    3.090526e+03
  8.460288e+00    3.084509e+03
  8.513292e+00    3.044583e+03
  8.566296e+00    3.021819e+03
  8.619300e+00    3.011904e+03
  8.672304e+00    3.016302e+03
  8.725308e+00    3.047401e+03
  8.778312e+00    3.081148e+03
  8.831316e+00    3.105270e+03
  8.884321e+00    3.109202e+03
  8.937325e+00    3.099415e+03
  8.990329e+00    3.024438e+03
  9.043333e+00    2.902417e+03
  9.096337e+00    2.814179e+03
  9.149341e+00    2.771980e+03
  9.202345e+00    2.753514e+03
  9.255349e+00    2.744862e+03
  9.308353e+00    2.744717e+03
  9.361357e+00    2.759186e+03
  9.414362e+00    2.763538e+03
  9.467366e+00    2.766258e+03
  9.520370e+00    2.731596e+03
  9.573374e+00    2.687597e+03
  9.626378e+00    2.668084e+03
  9.679382e+00    2.664623e+03
  9.732386e+00    2.671107e+03
  9.785390e+00    2.676406e+03
  9.838394e+00    2.671145e+03
  9.891398e+00    2.668504e+03
  9.944403e+00    2.650013e+03
  9.997407e+00    2.623973e+03
  1.005041e+01    2.592362e+03
  1.010341e+01    2.548361e+03
  1.015642e+01    2.522967e+03
  1.020942e+01    2.511288e+03
  1.026243e+01    2.504102e+03
  1.031543e+01    2.514550e+03
  1.036844e+01    2.533399e+03
  1.042144e+01    2.531791e+03
  1.047444e+01    2.535323e+03
  1.052745e+01    2.532594e+03
  1.058045e+01    2.537347e+03
  1.063346e+01    2.536560e+03
  1.068646e+01    2.531879e+03
  1.073946e+01    2.516706e+03
  1.079247e+01    2.499851e+03
  1.084547e+01    2.482930e+03
  1.089848e+01    2.478706e+03
  1.095148e+01    2.478442e+03
  1.100448e+01    2.475305e+03
  1.105749e+01    2.474357e+03
  1.111049e+01    2.479178e+03
  1.116350e+01    2.474972e+03
  1.121650e+01    2.458326e+03
  1.126951e+01    2.437662e+03
  1.132251e+01    2.426166e+03
  1.137551e+01    2.415058e+03
  1.142852e+01    2.408179e+03
  1.148152e+01    2.394612e+03
  1.153453e+01    2.379525e+03
  1.158753e+01    2.372375e+03
  1.164053e+01    2.365972e+03
  1.169354e+01    2.370633e+03
  1.174654e+01    2.398885e+03
  1.179955e+01    2.396242e+03
  1.185255e+01    2.395771e+03
  1.190555e+01    2.381647e+03
  1.195856e+01    2.368014e+03
  1.201156e+01    2.360207e+03
  1.206457e+01    2.349643e+03
  1.211757e+01    2.354780e+03
  1.217057e+01    2.359019e+03
  1.222358e+01    2.358424e+03
  1.227658e+01    2.358143e+03
  1.232959e+01    2.356378e+03
  1.238259e+01    2.345943e+03
  1.243560e+01    2.344766e+03
  1.248860e+01    2.338081e+03
  1.254160e+01    2.340275e+03
  1.259461e+01    2.339861e+03
  1.264761e+01    2.332677e+03
  1.270062e+01    2.321681e+03
  1.275362e+01    2.314038e+03
  1.280662e+01    2.305224e+03
  1.285963e+01    2.299425e+03
  1.291263e+01    2.287329e+03
  1.296564e+01    2.275481e+03
  1.301864e+01    2.267688e+03
  1.307164e+01    2.256729e+03
  1.312465e+01    2.245805e+03
  1.317765e+01    2.236211e+03
  1.323066e+01    2.218337e+03
  1.328366e+01    2.213354e+03
  1.333667e+01    2.207919e+03
  1.338967e+01    2.202650e+03
  1.344267e+01    2.216999e+03
  1.349568e+01    2.213535e+03
  1.354868e+01    2.207416e+03
  1.360169e+01    2.195935e+03
  1.365469e+01    2.185351e+03
  1.370769e+01    2.173963e+03
  1.376070e+01    2.161476e+03
  1.381370e+01    2.152303e+03
  1.386671e+01    2.144187e+03
  1.391971e+01    2.137133e+03
  1.397271e+01    2.135054e+03
  1.402572e+01    2.128625e+03
  1.407872e+01    2.121933e+03
  1.413173e+01    2.115011e+03
  1.418473e+01    2.113101e+03
  1.423773e+01    2.108164e+03
  1.429074e+01    2.099189e+03
  1.434374e+01    2.097987e+03
  1.439675e+01    2.090287e+03
  1.444975e+01    2.087241e+03
  1.450276e+01    2.084462e+03
  1.455576e+01    2.078255e+03
  1.460876e+01    2.077388e+03
  1.466177e+01    2.075580e+03
  1.471477e+01    2.075826e+03
  1.476778e+01    2.078744e+03
  1.482078e+01    2.077290e+03
  1.487378e+01    2.073578e+03
  1.492679e+01    2.068333e+03
  1.497979e+01    2.061618e+03
  1.503280e+01    2.061759e+03
  1.508580e+01    2.058582e+03
  1.513880e+01    2.057657e+03
  1.519181e+01    2.061774e+03
  1.524481e+01    2.083782e+03
  1.529782e+01    2.065234e+03
  1.535082e+01    2.056768e+03
  1.540382e+01    2.051317e+03
  1.545683e+01    2.040598e+03
  1.550983e+01    2.044701e+03
  1.556284e+01    2.039288e+03
  1.561584e+01    2.033071e+03
  1.566885e+01    2.029657e+03
  1.572185e+01    2.026709e+03
  1.577485e+01    2.024250e+03
  1.582786e+01    2.019397e+03
  1.588086e+01    2.016839e+03
  1.593387e+01    2.015815e+03
  1.598687e+01    2.011578e+03
  1.603987e+01    2.003310e+03
  1.609288e+01    1.996351e+03
  1.614588e+01    1.991653e+03
  1.619889e+01    1.991179e+03
  1.625189e+01    1.994512e+03
  1.630489e+01    1.991091e+03
  1.635790e+01    1.988907e+03
  1.641090e+01    1.984719e+03
  1.646391e+01    1.978057e+03
  1.651691e+01    1.976360e+03
  1.656992e+01    1.968887e+03
  1.662292e+01    1.965674e+03
  1.667592e+01    1.964669e+03
  1.672893e+01    1.964006e+03
  1.678193e+01    1.962796e+03
  1.683494e+01    1.957988e+03
  1.688794e+01    1.959010e+03
  1.694094e+01    1.957102e+03
  1.699395e+01    1.953359e+03
  1.704695e+01    1.948217e+03
  1.709996e+01    1.944642e+03
  1.715296e+01    1.941779e+03
  1.720596e+01    1.937468e+03
  1.725897e+01    1.933959e+03
  1.731197e+01    1.932947e+03
  1.736498e+01    1.926128e+03
  1.741798e+01    1.924272e+03
  1.747098e+01    1.922360e+03
  1.752399e+01    1.920438e+03
  1.757699e+01    1.915744e+03
  1.763000e+01    1.909726e+03
  1.768300e+01    1.906197e+03
  1.773601e+01    1.901150e+03
  1.778901e+01    1.898001e+03
  1.784201e+01    1.891177e+03
  1.789502e+01    1.889245e+03
  1.794802e+01    1.883135e+03
  1.800103e+01    1.884566e+03
  1.805403e+01    1.878291e+03
  1.810703e+01    1.874596e+03
  1.816004e+01    1.870782e+03
  1.821304e+01    1.869229e+03
  1.826605e+01    1.871118e+03
  1.831905e+01    1.861720e+03
  1.837205e+01    1.859170e+03
  1.842506e+01    1.857804e+03
  1.847806e+01    1.855715e+03
  1.853107e+01    1.852265e+03
  1.858407e+01    1.851214e+03
  1.863708e+01    1.850917e+03
  1.869008e+01    1.867026e+03
  1.874308e+01    1.855154e+03
  1.879609e+01    1.851459e+03
  1.884909e+01    1.846415e+03
  1.890210e+01    1.843596e+03
  1.895510e+01    1.835489e+03
  1.900810e+01    1.833627e+03
  1.906111e+01    1.827065e+03
  1.911411e+01    1.821993e+03
  1.916712e+01    1.818392e+03
  1.922012e+01    1.814742e+03
  1.927312e+01    1.807690e+03
  1.932613e+01    1.804949e+03
  1.937913e+01    1.799806e+03
  1.943214e+01    1.795473e+03
  1.948514e+01    1.790234e+03
  1.953814e+01    1.785013e+03
  1.959115e+01    1.781870e+03
  1.964415e+01    1.776364e+03
  1.969716e+01    1.772743e+03
  1.975016e+01    1.768997e+03
  1.980317e+01    1.764525e+03
  1.985617e+01    1.759635e+03
  1.990917e+01    1.753573e+03
  1.996218e+01    1.748665e+03
  2.001518e+01    1.743100e+03
  2.006819e+01    1.737066e+03
  2.012119e+01    1.731208e+03
  2.017419e+01    1.726130e+03
  2.022720e+01    1.720893e+03
  2.028020e+01    1.713751e+03
  2.033321e+01    1.707777e+03
  2.038621e+01    1.701285e+03
  2.043921e+01    1.698423e+03
  2.049222e+01    1.693891e+03
  2.054522e+01    1.688019e+03
  2.059823e+01    1.684098e+03
  2.065123e+01    1.678829e+03
  2.070424e+01    1.675002e+03
  2.075724e+01    1.674288e+03
  2.081024e+01    1.680522e+03
  2.086325e+01    1.671356e+03
  2.091625e+01    1.655305e+03
  2.096926e+01    1.641407e+03
  2.102226e+01    1.631553e+03
  2.107526e+01    1.623862e+03
  2.112827e+01    1.611083e+03
  2.118127e+01    1.602672e+03
  2.123428e+01    1.592961e+03
  2.128728e+01    1.585498e+03
  2.134028e+01    1.576330e+03
  2.139329e+01    1.566476e+03
  2.144629e+01    1.557303e+03
  2.149930e+01    1.548546e+03
  2.155230e+01    1.539340e+03
  2.160530e+01    1.533348e+03
  2.165831e+01    1.521407e+03
  2.171131e+01    1.515847e+03
  2.176432e+01    1.510373e+03
  2.181732e+01    1.501796e+03
  2.187033e+01    1.490098e+03
  2.192333e+01    1.485241e+03
  2.197633e+01    1.476009e+03
  2.202934e+01    1.468188e+03
  2.208234e+01    1.457738e+03
  2.213535e+01    1.450159e+03
  2.218835e+01    1.439443e+03
  2.224135e+01    1.432181e+03
  2.229436e+01    1.423880e+03
  2.234736e+01    1.415297e+03
  2.240037e+01    1.405371e+03
  2.245337e+01    1.398580e+03
  2.250637e+01    1.391552e+03
  2.255938e+01    1.382349e+03
  2.261238e+01    1.384514e+03
  2.266539e+01    1.386895e+03
  2.271839e+01    1.386171e+03
  2.277140e+01    1.386697e+03
  2.282440e+01    1.385969e+03
  2.287740e+01    1.382241e+03
  2.293041e+01    1.383115e+03
  2.298341e+01    1.381510e+03
  2.303642e+01    1.380526e+03
  2.308942e+01    1.379456e+03
  2.314242e+01    1.375648e+03
  2.319543e+01    1.370655e+03
  2.324843e+01    1.368641e+03
  2.330144e+01    1.365122e+03
  2.335444e+01    1.364124e+03
  2.340744e+01    1.363093e+03
  2.346045e+01    1.362420e+03
  2.351345e+01    1.357270e+03
  2.356646e+01    1.355264e+03
  2.361946e+01    1.354271e+03
  2.367246e+01    1.355400e+03
  2.372547e+01    1.349912e+03
  2.377847e+01    1.343268e+03
  2.383148e+01    1.339444e+03
  2.388448e+01    1.337519e+03
  2.393749e+01    1.335410e+03
  2.399049e+01    1.332202e+03
  2.404349e+01    1.330777e+03
  2.409650e+01    1.327765e+03
  2.414950e+01    1.320201e+03
  2.420251e+01    1.314076e+03
  2.425551e+01    1.310260e+03
  2.430851e+01    1.302522e+03
  2.436152e+01    1.298092e+03
  2.441452e+01    1.292620e+03
  2.446753e+01    1.286006e+03
  2.452053e+01    1.278905e+03
  2.457353e+01    1.275083e+03
  2.462654e+01    1.270318e+03
  2.467954e+01    1.260932e+03
  2.473255e+01    1.252582e+03
  2.478555e+01    1.244744e+03
  2.483855e+01    1.235106e+03
  2.489156e+01    1.226968e+03
  2.494456e+01    1.215472e+03
  2.499757e+01    1.209930e+03
  2.505057e+01    1.198424e+03
  2.510358e+01    1.192677e+03
  2.515658e+01    1.187354e+03
  2.520958e+01    1.183769e+03
  2.526259e+01    1.172407e+03
  2.531559e+01    1.166936e+03
  2.536860e+01    1.161708e+03
  2.542160e+01    1.156866e+03
  2.547460e+01    1.149589e+03
  2.552761e+01    1.138388e+03
  2.558061e+01    1.136707e+03
  2.563362e+01    1.136093e+03
  2.568662e+01    1.123119e+03
  2.573962e+01    1.118698e+03
  2.579263e+01    1.107337e+03
  2.584563e+01    1.099450e+03
  2.589864e+01    1.095762e+03
  2.595164e+01    1.093552e+03
  2.600465e+01    1.094348e+03
  2.605765e+01    1.088150e+03
  2.611065e+01    1.081619e+03
  2.616366e+01    1.080595e+03
  2.621666e+01    1.081472e+03
  2.626967e+01    1.063407e+03
  2.632267e+01    1.069979e+03
  2.637567e+01    1.050668e+03
  2.642868e+01    1.037573e+03
  2.648168e+01    1.034557e+03
