# == pyFAI calibration ==
# Distance Sample to Detector: 0.2945755399789714 m
# PONI: 2.880e-01, 2.450e-01 m
# Rotations: -0.007291 -0.010887 -0.000000 rad
# 
# == Fit2d calibration ==
# Distance Sample-beamCenter: 294.601 mm
# Center: x=1437.174, y=1655.617 pix
# Tilt: 0.751 deg  TiltPlanRot: -56.193 deg
# 
# Detector Pilatus CdTe 2M	 PixelSize= 1.720e-04, 1.720e-04 m
#    Detector has a mask: True 
#    Detector has a dark current: False 
#    detector has a flat field: False 
# 
# Wavelength: 2.0732883349524408e-11 m
# Mask applied: from detector
# Dark current applied: False
# Flat field applied: False
# Polarization factor: 0.9
# Normalization factor: 1.0
# --> /gpfs/current/raw/FMue_2/FMue_2_20231024_120911_00042.dat
#        q_A^-1             I 
  3.263564e-02             nan
  8.563974e-02             nan
  1.386438e-01             nan
  1.916479e-01             nan
  2.446520e-01    3.522973e+04
  2.976561e-01    2.770379e+04
  3.506602e-01    1.495130e+04
  4.036643e-01    1.054604e+04
  4.566684e-01    9.039440e+03
  5.096725e-01    8.701409e+03
  5.626766e-01    8.498262e+03
  6.156807e-01    8.267154e+03
  6.686848e-01    8.175619e+03
  7.216890e-01    8.268404e+03
  7.746931e-01    8.299105e+03
  8.276972e-01    8.390783e+03
  8.807013e-01    8.458771e+03
  9.337054e-01    8.608465e+03
  9.867095e-01    8.766796e+03
  1.039714e+00    9.008784e+03
  1.092718e+00    9.337919e+03
  1.145722e+00    9.828168e+03
  1.198726e+00    1.044704e+04
  1.251730e+00    1.129386e+04
  1.304734e+00    1.264663e+04
  1.357738e+00    1.369999e+04
  1.410742e+00    1.394748e+04
  1.463746e+00    1.396705e+04
  1.516750e+00    1.383113e+04
  1.569755e+00    1.332121e+04
  1.622759e+00    1.264285e+04
  1.675763e+00    1.177288e+04
  1.728767e+00    1.086075e+04
  1.781771e+00    1.005543e+04
  1.834775e+00    9.376367e+03
  1.887779e+00    8.785725e+03
  1.940783e+00    8.421290e+03
  1.993787e+00    8.131679e+03
  2.046791e+00    8.065396e+03
  2.099796e+00    8.568492e+03
  2.152800e+00    1.022545e+04
  2.205804e+00    1.095231e+04
  2.258808e+00    9.235515e+03
  2.311812e+00    8.029414e+03
  2.364816e+00    7.688608e+03
  2.417820e+00    7.980918e+03
  2.470824e+00    9.593958e+03
  2.523828e+00    1.499262e+04
  2.576832e+00    1.900148e+04
  2.629837e+00    1.378885e+04
  2.682841e+00    9.368697e+03
  2.735845e+00    7.617063e+03
  2.788849e+00    6.416696e+03
  2.841853e+00    5.580302e+03
  2.894857e+00    5.205061e+03
  2.947861e+00    5.124900e+03
  3.000865e+00    5.445273e+03
  3.053869e+00    6.934148e+03
  3.106874e+00    9.245614e+03
  3.159878e+00    9.504837e+03
  3.212882e+00    7.998940e+03
  3.265886e+00    5.897769e+03
  3.318890e+00    4.856596e+03
  3.371894e+00    4.607721e+03
  3.424898e+00    4.518773e+03
  3.477902e+00    4.498099e+03
  3.530906e+00    4.487245e+03
  3.583910e+00    4.495458e+03
  3.636915e+00    4.576083e+03
  3.689919e+00    4.795062e+03
  3.742923e+00    5.358453e+03
  3.795927e+00    5.942115e+03
  3.848931e+00    5.774135e+03
  3.901935e+00    5.774531e+03
  3.954939e+00    6.928250e+03
  4.007943e+00    9.018184e+03
  4.060947e+00    9.030388e+03
  4.113951e+00    7.339883e+03
  4.166956e+00    6.384600e+03
  4.219960e+00    6.073845e+03
  4.272964e+00    6.368676e+03
  4.325968e+00    8.367493e+03
  4.378972e+00    1.237327e+04
  4.431976e+00    1.319167e+04
  4.484980e+00    1.186211e+04
  4.537984e+00    9.071377e+03
  4.590988e+00    6.496351e+03
  4.643992e+00    5.409625e+03
  4.696997e+00    5.050877e+03
  4.750001e+00    4.918390e+03
  4.803005e+00    4.919412e+03
  4.856009e+00    5.091240e+03
  4.909013e+00    5.250498e+03
  4.962017e+00    5.274154e+03
  5.015021e+00    5.554891e+03
  5.068025e+00    6.189368e+03
  5.121029e+00    6.230460e+03
  5.174033e+00    5.532813e+03
  5.227038e+00    4.855051e+03
  5.280042e+00    4.498264e+03
  5.333046e+00    4.427161e+03
  5.386050e+00    4.429590e+03
  5.439054e+00    4.259825e+03
  5.492058e+00    4.193405e+03
  5.545062e+00    3.925078e+03
  5.598066e+00    3.615674e+03
  5.651070e+00    3.504808e+03
  5.704074e+00    3.555478e+03
  5.757079e+00    3.792822e+03
  5.810083e+00    4.019740e+03
  5.863087e+00    4.167867e+03
  5.916091e+00    4.699216e+03
  5.969095e+00    4.974453e+03
  6.022099e+00    4.425221e+03
  6.075103e+00    3.980320e+03
  6.128107e+00    3.909248e+03
  6.181111e+00    4.055252e+03
  6.234115e+00    4.064782e+03
  6.287120e+00    3.901032e+03
  6.340124e+00    3.764387e+03
  6.393128e+00    3.625575e+03
  6.446132e+00    3.475768e+03
  6.499136e+00    3.436138e+03
  6.552140e+00    3.521161e+03
  6.605144e+00    3.650267e+03
  6.658148e+00    3.894626e+03
  6.711152e+00    4.200552e+03
  6.764156e+00    4.061477e+03
  6.817161e+00    3.641536e+03
  6.870165e+00    3.415014e+03
  6.923169e+00    3.399438e+03
  6.976173e+00    3.380451e+03
  7.029177e+00    3.314064e+03
  7.082181e+00    3.292616e+03
  7.135185e+00    3.214164e+03
  7.188189e+00    3.131779e+03
  7.241193e+00    3.119699e+03
  7.294197e+00    3.213300e+03
  7.347202e+00    3.404561e+03
  7.400206e+00    3.545255e+03
  7.453210e+00    3.475589e+03
  7.506214e+00    3.504835e+03
  7.559218e+00    3.831124e+03
  7.612222e+00    4.019735e+03
  7.665226e+00    3.777343e+03
  7.718230e+00    3.707969e+03
  7.771234e+00    3.705248e+03
  7.824239e+00    3.535504e+03
  7.877243e+00    3.420043e+03
  7.930247e+00    3.415748e+03
  7.983251e+00    3.526189e+03
  8.036255e+00    3.560710e+03
  8.089259e+00    3.362746e+03
  8.142263e+00    3.156774e+03
  8.195267e+00    3.052703e+03
  8.248271e+00    3.004620e+03
  8.301275e+00    2.969026e+03
  8.354280e+00    2.934999e+03
  8.407284e+00    2.917361e+03
  8.460288e+00    2.929373e+03
  8.513292e+00    2.943551e+03
  8.566296e+00    2.973743e+03
  8.619300e+00    2.962167e+03
  8.672304e+00    2.928809e+03
  8.725308e+00    2.961689e+03
  8.778312e+00    2.993255e+03
  8.831316e+00    2.938732e+03
  8.884321e+00    2.889516e+03
  8.937325e+00    2.884297e+03
  8.990329e+00    2.896511e+03
  9.043333e+00    2.899481e+03
  9.096337e+00    2.934050e+03
  9.149341e+00    2.960496e+03
  9.202345e+00    2.880618e+03
  9.255349e+00    2.781916e+03
  9.308353e+00    2.726451e+03
  9.361357e+00    2.679953e+03
  9.414362e+00    2.646890e+03
  9.467366e+00    2.672133e+03
  9.520370e+00    2.714770e+03
  9.573374e+00    2.759179e+03
  9.626378e+00    2.802603e+03
  9.679382e+00    2.797594e+03
  9.732386e+00    2.766474e+03
  9.785390e+00    2.766520e+03
  9.838394e+00    2.741883e+03
  9.891398e+00    2.684572e+03
  9.944403e+00    2.654771e+03
  9.997407e+00    2.663383e+03
  1.005041e+01    2.694096e+03
  1.010341e+01    2.717726e+03
  1.015642e+01    2.702535e+03
  1.020942e+01    2.617047e+03
  1.026243e+01    2.535594e+03
  1.031543e+01    2.505429e+03
  1.036844e+01    2.503994e+03
  1.042144e+01    2.495095e+03
  1.047444e+01    2.506135e+03
  1.052745e+01    2.522728e+03
  1.058045e+01    2.536620e+03
  1.063346e+01    2.517980e+03
  1.068646e+01    2.492716e+03
  1.073946e+01    2.476859e+03
  1.079247e+01    2.462659e+03
  1.084547e+01    2.447084e+03
  1.089848e+01    2.463120e+03
  1.095148e+01    2.501864e+03
  1.100448e+01    2.544229e+03
  1.105749e+01    2.541846e+03
  1.111049e+01    2.498815e+03
  1.116350e+01    2.445829e+03
  1.121650e+01    2.418851e+03
  1.126951e+01    2.406423e+03
  1.132251e+01    2.409840e+03
  1.137551e+01    2.433097e+03
  1.142852e+01    2.463397e+03
  1.148152e+01    2.484929e+03
  1.153453e+01    2.503610e+03
  1.158753e+01    2.519218e+03
  1.164053e+01    2.490723e+03
  1.169354e+01    2.441096e+03
  1.174654e+01    2.439197e+03
  1.179955e+01    2.434007e+03
  1.185255e+01    2.439781e+03
  1.190555e+01    2.425297e+03
  1.195856e+01    2.386363e+03
  1.201156e+01    2.349123e+03
  1.206457e+01    2.330011e+03
  1.211757e+01    2.335624e+03
  1.217057e+01    2.352872e+03
  1.222358e+01    2.376778e+03
  1.227658e+01    2.385612e+03
  1.232959e+01    2.369946e+03
  1.238259e+01    2.336580e+03
  1.243560e+01    2.321021e+03
  1.248860e+01    2.312890e+03
  1.254160e+01    2.317034e+03
  1.259461e+01    2.322311e+03
  1.264761e+01    2.320118e+03
  1.270062e+01    2.304934e+03
  1.275362e+01    2.287300e+03
  1.280662e+01    2.276074e+03
  1.285963e+01    2.267130e+03
  1.291263e+01    2.258274e+03
  1.296564e+01    2.258723e+03
  1.301864e+01    2.265890e+03
  1.307164e+01    2.269484e+03
  1.312465e+01    2.271773e+03
  1.317765e+01    2.270026e+03
  1.323066e+01    2.252304e+03
  1.328366e+01    2.254915e+03
  1.333667e+01    2.270875e+03
  1.338967e+01    2.281873e+03
  1.344267e+01    2.279769e+03
  1.349568e+01    2.250094e+03
  1.354868e+01    2.224577e+03
  1.360169e+01    2.210564e+03
  1.365469e+01    2.206403e+03
  1.370769e+01    2.211264e+03
  1.376070e+01    2.206046e+03
  1.381370e+01    2.193767e+03
  1.386671e+01    2.178671e+03
  1.391971e+01    2.163935e+03
  1.397271e+01    2.159443e+03
  1.402572e+01    2.159959e+03
  1.407872e+01    2.159596e+03
  1.413173e+01    2.152506e+03
  1.418473e+01    2.140617e+03
  1.423773e+01    2.127896e+03
  1.429074e+01    2.117777e+03
  1.434374e+01    2.121384e+03
  1.439675e+01    2.113731e+03
  1.444975e+01    2.113113e+03
  1.450276e+01    2.106196e+03
  1.455576e+01    2.097510e+03
  1.460876e+01    2.088915e+03
  1.466177e+01    2.085644e+03
  1.471477e+01    2.087856e+03
  1.476778e+01    2.089297e+03
  1.482078e+01    2.081444e+03
  1.487378e+01    2.069997e+03
  1.492679e+01    2.062018e+03
  1.497979e+01    2.058126e+03
  1.503280e+01    2.059812e+03
  1.508580e+01    2.059500e+03
  1.513880e+01    2.059982e+03
  1.519181e+01    2.067172e+03
  1.524481e+01    2.092726e+03
  1.529782e+01    2.081635e+03
  1.535082e+01    2.078341e+03
  1.540382e+01    2.076819e+03
  1.545683e+01    2.063338e+03
  1.550983e+01    2.061858e+03
  1.556284e+01    2.054104e+03
  1.561584e+01    2.050051e+03
  1.566885e+01    2.050492e+03
  1.572185e+01    2.052722e+03
  1.577485e+01    2.054171e+03
  1.582786e+01    2.045295e+03
  1.588086e+01    2.039168e+03
  1.593387e+01    2.033944e+03
  1.598687e+01    2.028822e+03
  1.603987e+01    2.017801e+03
  1.609288e+01    2.004864e+03
  1.614588e+01    1.997671e+03
  1.619889e+01    2.000319e+03
  1.625189e+01    2.003019e+03
  1.630489e+01    2.001139e+03
  1.635790e+01    1.997224e+03
  1.641090e+01    1.993766e+03
  1.646391e+01    1.989384e+03
  1.651691e+01    1.994490e+03
  1.656992e+01    1.993812e+03
  1.662292e+01    1.990489e+03
  1.667592e+01    1.985630e+03
  1.672893e+01    1.980738e+03
  1.678193e+01    1.978514e+03
  1.683494e+01    1.975274e+03
  1.688794e+01    1.976962e+03
  1.694094e+01    1.976157e+03
  1.699395e+01    1.972809e+03
  1.704695e+01    1.973799e+03
  1.709996e+01    1.969673e+03
  1.715296e+01    1.964302e+03
  1.720596e+01    1.961391e+03
  1.725897e+01    1.952296e+03
  1.731197e+01    1.946941e+03
  1.736498e+01    1.941352e+03
  1.741798e+01    1.938788e+03
  1.747098e+01    1.939415e+03
  1.752399e+01    1.936754e+03
  1.757699e+01    1.934056e+03
  1.763000e+01    1.932223e+03
  1.768300e+01    1.930113e+03
  1.773601e+01    1.928042e+03
  1.778901e+01    1.922581e+03
  1.784201e+01    1.914882e+03
  1.789502e+01    1.914356e+03
  1.794802e+01    1.908312e+03
  1.800103e+01    1.909326e+03
  1.805403e+01    1.903184e+03
  1.810703e+01    1.895000e+03
  1.816004e+01    1.890831e+03
  1.821304e+01    1.886677e+03
  1.826605e+01    1.891319e+03
  1.831905e+01    1.881079e+03
  1.837205e+01    1.875651e+03
  1.842506e+01    1.874881e+03
  1.847806e+01    1.872197e+03
  1.853107e+01    1.868655e+03
  1.858407e+01    1.868917e+03
  1.863708e+01    1.867908e+03
  1.869008e+01    1.885031e+03
  1.874308e+01    1.875782e+03
  1.879609e+01    1.870908e+03
  1.884909e+01    1.864962e+03
  1.890210e+01    1.863262e+03
  1.895510e+01    1.856579e+03
  1.900810e+01    1.856181e+03
  1.906111e+01    1.851259e+03
  1.911411e+01    1.843851e+03
  1.916712e+01    1.842258e+03
  1.922012e+01    1.839945e+03
  1.927312e+01    1.833218e+03
  1.932613e+01    1.830506e+03
  1.937913e+01    1.825954e+03
  1.943214e+01    1.820851e+03
  1.948514e+01    1.817496e+03
  1.953814e+01    1.811874e+03
  1.959115e+01    1.808240e+03
  1.964415e+01    1.802250e+03
  1.969716e+01    1.801133e+03
  1.975016e+01    1.797988e+03
  1.980317e+01    1.794115e+03
  1.985617e+01    1.788602e+03
  1.990917e+01    1.783139e+03
  1.996218e+01    1.780409e+03
  2.001518e+01    1.777102e+03
  2.006819e+01    1.769802e+03
  2.012119e+01    1.766316e+03
  2.017419e+01    1.761299e+03
  2.022720e+01    1.756204e+03
  2.028020e+01    1.748266e+03
  2.033321e+01    1.741851e+03
  2.038621e+01    1.735932e+03
  2.043921e+01    1.730339e+03
  2.049222e+01    1.727323e+03
  2.054522e+01    1.722702e+03
  2.059823e+01    1.717738e+03
  2.065123e+01    1.711730e+03
  2.070424e+01    1.708290e+03
  2.075724e+01    1.704716e+03
  2.081024e+01    1.714098e+03
  2.086325e+01    1.704222e+03
  2.091625e+01    1.690162e+03
  2.096926e+01    1.676247e+03
  2.102226e+01    1.665459e+03
  2.107526e+01    1.654415e+03
  2.112827e+01    1.644683e+03
  2.118127e+01    1.636391e+03
  2.123428e+01    1.625571e+03
  2.128728e+01    1.615923e+03
  2.134028e+01    1.607599e+03
  2.139329e+01    1.596802e+03
  2.144629e+01    1.587401e+03
  2.149930e+01    1.581329e+03
  2.155230e+01    1.573285e+03
  2.160530e+01    1.564662e+03
  2.165831e+01    1.553611e+03
  2.171131e+01    1.548238e+03
  2.176432e+01    1.543359e+03
  2.181732e+01    1.534559e+03
  2.187033e+01    1.523428e+03
  2.192333e+01    1.518782e+03
  2.197633e+01    1.507580e+03
  2.202934e+01    1.499981e+03
  2.208234e+01    1.489261e+03
  2.213535e+01    1.480719e+03
  2.218835e+01    1.471431e+03
  2.224135e+01    1.463206e+03
  2.229436e+01    1.456961e+03
  2.234736e+01    1.448470e+03
  2.240037e+01    1.437956e+03
  2.245337e+01    1.431106e+03
  2.250637e+01    1.423763e+03
  2.255938e+01    1.413873e+03
  2.261238e+01    1.415632e+03
  2.266539e+01    1.415809e+03
  2.271839e+01    1.416855e+03
  2.277140e+01    1.416701e+03
  2.282440e+01    1.416233e+03
  2.287740e+01    1.413336e+03
  2.293041e+01    1.412105e+03
  2.298341e+01    1.411112e+03
  2.303642e+01    1.410980e+03
  2.308942e+01    1.408118e+03
  2.314242e+01    1.404917e+03
  2.319543e+01    1.402282e+03
  2.324843e+01    1.396756e+03
  2.330144e+01    1.393815e+03
  2.335444e+01    1.393302e+03
  2.340744e+01    1.390943e+03
  2.346045e+01    1.389591e+03
  2.351345e+01    1.388981e+03
  2.356646e+01    1.383132e+03
  2.361946e+01    1.382590e+03
  2.367246e+01    1.382071e+03
  2.372547e+01    1.376886e+03
  2.377847e+01    1.373135e+03
  2.383148e+01    1.367029e+03
  2.388448e+01    1.366163e+03
  2.393749e+01    1.362332e+03
  2.399049e+01    1.362637e+03
  2.404349e+01    1.360235e+03
  2.409650e+01    1.356247e+03
  2.414950e+01    1.354345e+03
  2.420251e+01    1.346886e+03
  2.425551e+01    1.343415e+03
  2.430851e+01    1.339147e+03
  2.436152e+01    1.334346e+03
  2.441452e+01    1.327698e+03
  2.446753e+01    1.322934e+03
  2.452053e+01    1.316797e+03
  2.457353e+01    1.312905e+03
  2.462654e+01    1.310594e+03
  2.467954e+01    1.301568e+03
  2.473255e+01    1.293367e+03
  2.478555e+01    1.281594e+03
  2.483855e+01    1.272671e+03
  2.489156e+01    1.262931e+03
  2.494456e+01    1.253803e+03
  2.499757e+01    1.243099e+03
  2.505057e+01    1.235195e+03
  2.510358e+01    1.228186e+03
  2.515658e+01    1.219227e+03
  2.520958e+01    1.218119e+03
  2.526259e+01    1.207929e+03
  2.531559e+01    1.201110e+03
  2.536860e+01    1.193651e+03
  2.542160e+01    1.184125e+03
  2.547460e+01    1.178832e+03
  2.552761e+01    1.165988e+03
  2.558061e+01    1.164310e+03
  2.563362e+01    1.159615e+03
  2.568662e+01    1.149343e+03
  2.573962e+01    1.141553e+03
  2.579263e+01    1.136821e+03
  2.584563e+01    1.126986e+03
  2.589864e+01    1.122785e+03
  2.595164e+01    1.120316e+03
  2.600465e+01    1.115995e+03
  2.605765e+01    1.114228e+03
  2.611065e+01    1.111906e+03
  2.616366e+01    1.109187e+03
  2.621666e+01    1.104697e+03
  2.626967e+01    1.093746e+03
  2.632267e+01    1.091788e+03
  2.637567e+01    1.087274e+03
  2.642868e+01    1.058717e+03
  2.648168e+01    1.046279e+03
