# == pyFAI calibration ==
# Distance Sample to Detector: 0.2945755399789714 m
# PONI: 2.880e-01, 2.450e-01 m
# Rotations: -0.007291 -0.010887 -0.000000 rad
# 
# == Fit2d calibration ==
# Distance Sample-beamCenter: 294.601 mm
# Center: x=1437.174, y=1655.617 pix
# Tilt: 0.751 deg  TiltPlanRot: -56.193 deg
# 
# Detector Pilatus CdTe 2M	 PixelSize= 1.720e-04, 1.720e-04 m
#    Detector has a mask: True 
#    Detector has a dark current: False 
#    detector has a flat field: False 
# 
# Wavelength: 2.0732883349524408e-11 m
# Mask applied: from detector
# Dark current applied: False
# Flat field applied: False
# Polarization factor: 0.9
# Normalization factor: 1.0
# --> /gpfs/current/raw/FMue_2/FMue_2_20231024_120911_00207.dat
#        q_A^-1             I 
  3.263564e-02             nan
  8.563974e-02             nan
  1.386438e-01             nan
  1.916479e-01             nan
  2.446520e-01    3.891390e+04
  2.976561e-01    3.003276e+04
  3.506602e-01    1.595605e+04
  4.036643e-01    1.117544e+04
  4.566684e-01    9.555711e+03
  5.096725e-01    9.145009e+03
  5.626766e-01    8.841271e+03
  6.156807e-01    8.479445e+03
  6.686848e-01    8.308005e+03
  7.216890e-01    8.340238e+03
  7.746931e-01    8.325024e+03
  8.276972e-01    8.408104e+03
  8.807013e-01    8.469672e+03
  9.337054e-01    8.613140e+03
  9.867095e-01    8.758360e+03
  1.039714e+00    9.022720e+03
  1.092718e+00    9.334836e+03
  1.145722e+00    9.818646e+03
  1.198726e+00    1.040941e+04
  1.251730e+00    1.110886e+04
  1.304734e+00    1.200099e+04
  1.357738e+00    1.286604e+04
  1.410742e+00    1.355905e+04
  1.463746e+00    1.389796e+04
  1.516750e+00    1.384810e+04
  1.569755e+00    1.336070e+04
  1.622759e+00    1.270558e+04
  1.675763e+00    1.185498e+04
  1.728767e+00    1.096720e+04
  1.781771e+00    1.017265e+04
  1.834775e+00    9.523036e+03
  1.887779e+00    8.966141e+03
  1.940783e+00    8.615232e+03
  1.993787e+00    8.314889e+03
  2.046791e+00    8.140598e+03
  2.099796e+00    8.094310e+03
  2.152800e+00    8.111870e+03
  2.205804e+00    8.197812e+03
  2.258808e+00    8.286609e+03
  2.311812e+00    8.314785e+03
  2.364816e+00    8.404985e+03
  2.417820e+00    8.748614e+03
  2.470824e+00    9.502802e+03
  2.523828e+00    1.111996e+04
  2.576832e+00    1.293116e+04
  2.629837e+00    1.086234e+04
  2.682841e+00    8.446779e+03
  2.735845e+00    7.766740e+03
  2.788849e+00    7.133178e+03
  2.841853e+00    6.871273e+03
  2.894857e+00    7.916552e+03
  2.947861e+00    1.137721e+04
  3.000865e+00    1.267429e+04
  3.053869e+00    9.296874e+03
  3.106874e+00    8.035625e+03
  3.159878e+00    8.621688e+03
  3.212882e+00    7.825967e+03
  3.265886e+00    5.994687e+03
  3.318890e+00    5.119081e+03
  3.371894e+00    4.886135e+03
  3.424898e+00    4.801949e+03
  3.477902e+00    4.762296e+03
  3.530906e+00    4.733973e+03
  3.583910e+00    4.712107e+03
  3.636915e+00    4.724616e+03
  3.689919e+00    4.775492e+03
  3.742923e+00    4.852152e+03
  3.795927e+00    4.976827e+03
  3.848931e+00    5.122361e+03
  3.901935e+00    5.315698e+03
  3.954939e+00    5.540148e+03
  4.007943e+00    5.897984e+03
  4.060947e+00    6.409956e+03
  4.113951e+00    7.244496e+03
  4.166956e+00    9.066530e+03
  4.219960e+00    1.097541e+04
  4.272964e+00    9.198985e+03
  4.325968e+00    7.186962e+03
  4.378972e+00    7.391979e+03
  4.431976e+00    9.468630e+03
  4.484980e+00    1.062465e+04
  4.537984e+00    8.506372e+03
  4.590988e+00    6.442097e+03
  4.643992e+00    5.697205e+03
  4.696997e+00    5.508665e+03
  4.750001e+00    5.471390e+03
  4.803005e+00    5.553055e+03
  4.856009e+00    5.845361e+03
  4.909013e+00    6.424300e+03
  4.962017e+00    6.608032e+03
  5.015021e+00    6.025420e+03
  5.068025e+00    5.709865e+03
  5.121029e+00    5.883561e+03
  5.174033e+00    5.940766e+03
  5.227038e+00    5.297163e+03
  5.280042e+00    4.705331e+03
  5.333046e+00    4.397481e+03
  5.386050e+00    4.242125e+03
  5.439054e+00    4.236059e+03
  5.492058e+00    4.198677e+03
  5.545062e+00    3.900953e+03
  5.598066e+00    3.671850e+03
  5.651070e+00    3.578086e+03
  5.704074e+00    3.551075e+03
  5.757079e+00    3.558345e+03
  5.810083e+00    3.600992e+03
  5.863087e+00    3.700333e+03
  5.916091e+00    3.902431e+03
  5.969095e+00    4.082297e+03
  6.022099e+00    4.031243e+03
  6.075103e+00    3.917220e+03
  6.128107e+00    3.838718e+03
  6.181111e+00    3.815806e+03
  6.234115e+00    3.885417e+03
  6.287120e+00    4.014425e+03
  6.340124e+00    4.061630e+03
  6.393128e+00    4.062051e+03
  6.446132e+00    4.077711e+03
  6.499136e+00    4.109667e+03
  6.552140e+00    4.030132e+03
  6.605144e+00    4.059825e+03
  6.658148e+00    4.158340e+03
  6.711152e+00    3.969915e+03
  6.764156e+00    3.675885e+03
  6.817161e+00    3.494695e+03
  6.870165e+00    3.379490e+03
  6.923169e+00    3.310065e+03
  6.976173e+00    3.336497e+03
  7.029177e+00    3.398215e+03
  7.082181e+00    3.441848e+03
  7.135185e+00    3.421623e+03
  7.188189e+00    3.423636e+03
  7.241193e+00    3.520899e+03
  7.294197e+00    3.654509e+03
  7.347202e+00    3.564516e+03
  7.400206e+00    3.389639e+03
  7.453210e+00    3.301699e+03
  7.506214e+00    3.279581e+03
  7.559218e+00    3.284221e+03
  7.612222e+00    3.333139e+03
  7.665226e+00    3.484558e+03
  7.718230e+00    3.715564e+03
  7.771234e+00    3.704609e+03
  7.824239e+00    3.438133e+03
  7.877243e+00    3.227369e+03
  7.930247e+00    3.116175e+03
  7.983251e+00    3.072195e+03
  8.036255e+00    3.067216e+03
  8.089259e+00    3.068335e+03
  8.142263e+00    3.078934e+03
  8.195267e+00    3.087995e+03
  8.248271e+00    3.089578e+03
  8.301275e+00    3.082917e+03
  8.354280e+00    3.087768e+03
  8.407284e+00    3.100846e+03
  8.460288e+00    3.089188e+03
  8.513292e+00    3.048997e+03
  8.566296e+00    3.034482e+03
  8.619300e+00    3.024368e+03
  8.672304e+00    3.030539e+03
  8.725308e+00    3.060966e+03
  8.778312e+00    3.086968e+03
  8.831316e+00    3.098899e+03
  8.884321e+00    3.100587e+03
  8.937325e+00    3.080253e+03
  8.990329e+00    3.002677e+03
  9.043333e+00    2.892461e+03
  9.096337e+00    2.819119e+03
  9.149341e+00    2.779654e+03
  9.202345e+00    2.763127e+03
  9.255349e+00    2.754513e+03
  9.308353e+00    2.757285e+03
  9.361357e+00    2.765983e+03
  9.414362e+00    2.765928e+03
  9.467366e+00    2.763102e+03
  9.520370e+00    2.729651e+03
  9.573374e+00    2.691787e+03
  9.626378e+00    2.674153e+03
  9.679382e+00    2.671662e+03
  9.732386e+00    2.677583e+03
  9.785390e+00    2.677863e+03
  9.838394e+00    2.671932e+03
  9.891398e+00    2.664723e+03
  9.944403e+00    2.644953e+03
  9.997407e+00    2.619715e+03
  1.005041e+01    2.593790e+03
  1.010341e+01    2.552972e+03
  1.015642e+01    2.529121e+03
  1.020942e+01    2.520200e+03
  1.026243e+01    2.512401e+03
  1.031543e+01    2.521929e+03
  1.036844e+01    2.539466e+03
  1.042144e+01    2.539355e+03
  1.047444e+01    2.540665e+03
  1.052745e+01    2.538016e+03
  1.058045e+01    2.538697e+03
  1.063346e+01    2.537099e+03
  1.068646e+01    2.531965e+03
  1.073946e+01    2.514198e+03
  1.079247e+01    2.502470e+03
  1.084547e+01    2.485979e+03
  1.089848e+01    2.484433e+03
  1.095148e+01    2.481640e+03
  1.100448e+01    2.477933e+03
  1.105749e+01    2.477982e+03
  1.111049e+01    2.481827e+03
  1.116350e+01    2.470860e+03
  1.121650e+01    2.455981e+03
  1.126951e+01    2.438274e+03
  1.132251e+01    2.427580e+03
  1.137551e+01    2.415816e+03
  1.142852e+01    2.410173e+03
  1.148152e+01    2.397761e+03
  1.153453e+01    2.386635e+03
  1.158753e+01    2.376935e+03
  1.164053e+01    2.373473e+03
  1.169354e+01    2.376613e+03
  1.174654e+01    2.405469e+03
  1.179955e+01    2.400723e+03
  1.185255e+01    2.398852e+03
  1.190555e+01    2.384058e+03
  1.195856e+01    2.372549e+03
  1.201156e+01    2.363804e+03
  1.206457e+01    2.354796e+03
  1.211757e+01    2.361905e+03
  1.217057e+01    2.363011e+03
  1.222358e+01    2.362124e+03
  1.227658e+01    2.359224e+03
  1.232959e+01    2.357579e+03
  1.238259e+01    2.348481e+03
  1.243560e+01    2.345469e+03
  1.248860e+01    2.342752e+03
  1.254160e+01    2.343342e+03
  1.259461e+01    2.341473e+03
  1.264761e+01    2.332982e+03
  1.270062e+01    2.322847e+03
  1.275362e+01    2.314543e+03
  1.280662e+01    2.305150e+03
  1.285963e+01    2.300208e+03
  1.291263e+01    2.287322e+03
  1.296564e+01    2.275845e+03
  1.301864e+01    2.267779e+03
  1.307164e+01    2.258697e+03
  1.312465e+01    2.248145e+03
  1.317765e+01    2.238804e+03
  1.323066e+01    2.222363e+03
  1.328366e+01    2.216806e+03
  1.333667e+01    2.209728e+03
  1.338967e+01    2.205433e+03
  1.344267e+01    2.218004e+03
  1.349568e+01    2.212205e+03
  1.354868e+01    2.206413e+03
  1.360169e+01    2.196542e+03
  1.365469e+01    2.184155e+03
  1.370769e+01    2.178071e+03
  1.376070e+01    2.163996e+03
  1.381370e+01    2.157310e+03
  1.386671e+01    2.147129e+03
  1.391971e+01    2.139119e+03
  1.397271e+01    2.136502e+03
  1.402572e+01    2.131402e+03
  1.407872e+01    2.125555e+03
  1.413173e+01    2.120242e+03
  1.418473e+01    2.114874e+03
  1.423773e+01    2.112109e+03
  1.429074e+01    2.102551e+03
  1.434374e+01    2.101937e+03
  1.439675e+01    2.094344e+03
  1.444975e+01    2.092139e+03
  1.450276e+01    2.086593e+03
  1.455576e+01    2.082921e+03
  1.460876e+01    2.081652e+03
  1.466177e+01    2.077497e+03
  1.471477e+01    2.079346e+03
  1.476778e+01    2.081771e+03
  1.482078e+01    2.079103e+03
  1.487378e+01    2.074630e+03
  1.492679e+01    2.068688e+03
  1.497979e+01    2.064175e+03
  1.503280e+01    2.062135e+03
  1.508580e+01    2.060921e+03
  1.513880e+01    2.058652e+03
  1.519181e+01    2.064679e+03
  1.524481e+01    2.085929e+03
  1.529782e+01    2.067616e+03
  1.535082e+01    2.055448e+03
  1.540382e+01    2.051484e+03
  1.545683e+01    2.042769e+03
  1.550983e+01    2.046611e+03
  1.556284e+01    2.042658e+03
  1.561584e+01    2.036001e+03
  1.566885e+01    2.032136e+03
  1.572185e+01    2.029444e+03
  1.577485e+01    2.026791e+03
  1.582786e+01    2.020898e+03
  1.588086e+01    2.018849e+03
  1.593387e+01    2.017840e+03
  1.598687e+01    2.015082e+03
  1.603987e+01    2.005534e+03
  1.609288e+01    1.996882e+03
  1.614588e+01    1.992733e+03
  1.619889e+01    1.993601e+03
  1.625189e+01    1.997372e+03
  1.630489e+01    1.993297e+03
  1.635790e+01    1.990411e+03
  1.641090e+01    1.986756e+03
  1.646391e+01    1.981189e+03
  1.651691e+01    1.978302e+03
  1.656992e+01    1.974045e+03
  1.662292e+01    1.968771e+03
  1.667592e+01    1.966754e+03
  1.672893e+01    1.965767e+03
  1.678193e+01    1.965619e+03
  1.683494e+01    1.961931e+03
  1.688794e+01    1.959335e+03
  1.694094e+01    1.956410e+03
  1.699395e+01    1.953358e+03
  1.704695e+01    1.949981e+03
  1.709996e+01    1.946511e+03
  1.715296e+01    1.941663e+03
  1.720596e+01    1.939813e+03
  1.725897e+01    1.935141e+03
  1.731197e+01    1.931945e+03
  1.736498e+01    1.927974e+03
  1.741798e+01    1.924908e+03
  1.747098e+01    1.924937e+03
  1.752399e+01    1.919305e+03
  1.757699e+01    1.915216e+03
  1.763000e+01    1.912797e+03
  1.768300e+01    1.905892e+03
  1.773601e+01    1.903214e+03
  1.778901e+01    1.897862e+03
  1.784201e+01    1.891657e+03
  1.789502e+01    1.889213e+03
  1.794802e+01    1.883734e+03
  1.800103e+01    1.882211e+03
  1.805403e+01    1.880261e+03
  1.810703e+01    1.873667e+03
  1.816004e+01    1.870869e+03
  1.821304e+01    1.867071e+03
  1.826605e+01    1.870701e+03
  1.831905e+01    1.861036e+03
  1.837205e+01    1.857848e+03
  1.842506e+01    1.857521e+03
  1.847806e+01    1.853718e+03
  1.853107e+01    1.852708e+03
  1.858407e+01    1.850359e+03
  1.863708e+01    1.851077e+03
  1.869008e+01    1.864231e+03
  1.874308e+01    1.854751e+03
  1.879609e+01    1.848605e+03
  1.884909e+01    1.845088e+03
  1.890210e+01    1.842173e+03
  1.895510e+01    1.836312e+03
  1.900810e+01    1.832167e+03
  1.906111e+01    1.825193e+03
  1.911411e+01    1.819094e+03
  1.916712e+01    1.814042e+03
  1.922012e+01    1.812494e+03
  1.927312e+01    1.804753e+03
  1.932613e+01    1.802515e+03
  1.937913e+01    1.795544e+03
  1.943214e+01    1.791802e+03
  1.948514e+01    1.787380e+03
  1.953814e+01    1.780492e+03
  1.959115e+01    1.778899e+03
  1.964415e+01    1.772153e+03
  1.969716e+01    1.769246e+03
  1.975016e+01    1.763101e+03
  1.980317e+01    1.759477e+03
  1.985617e+01    1.755094e+03
  1.990917e+01    1.748501e+03
  1.996218e+01    1.742870e+03
  2.001518e+01    1.740933e+03
  2.006819e+01    1.732240e+03
  2.012119e+01    1.726609e+03
  2.017419e+01    1.722487e+03
  2.022720e+01    1.716370e+03
  2.028020e+01    1.709539e+03
  2.033321e+01    1.704204e+03
  2.038621e+01    1.698347e+03
  2.043921e+01    1.693273e+03
  2.049222e+01    1.688680e+03
  2.054522e+01    1.684237e+03
  2.059823e+01    1.679769e+03
  2.065123e+01    1.672581e+03
  2.070424e+01    1.670146e+03
  2.075724e+01    1.669365e+03
  2.081024e+01    1.675826e+03
  2.086325e+01    1.666109e+03
  2.091625e+01    1.648458e+03
  2.096926e+01    1.636238e+03
  2.102226e+01    1.625993e+03
  2.107526e+01    1.615408e+03
  2.112827e+01    1.604394e+03
  2.118127e+01    1.595812e+03
  2.123428e+01    1.587522e+03
  2.128728e+01    1.578892e+03
  2.134028e+01    1.569410e+03
  2.139329e+01    1.559313e+03
  2.144629e+01    1.550381e+03
  2.149930e+01    1.541044e+03
  2.155230e+01    1.532820e+03
  2.160530e+01    1.524852e+03
  2.165831e+01    1.515792e+03
  2.171131e+01    1.508309e+03
  2.176432e+01    1.503398e+03
  2.181732e+01    1.493977e+03
  2.187033e+01    1.485466e+03
  2.192333e+01    1.477648e+03
  2.197633e+01    1.468109e+03
  2.202934e+01    1.460976e+03
  2.208234e+01    1.451179e+03
  2.213535e+01    1.443123e+03
  2.218835e+01    1.432746e+03
  2.224135e+01    1.425962e+03
  2.229436e+01    1.417250e+03
  2.234736e+01    1.408992e+03
  2.240037e+01    1.400615e+03
  2.245337e+01    1.391779e+03
  2.250637e+01    1.383960e+03
  2.255938e+01    1.376853e+03
  2.261238e+01    1.381451e+03
  2.266539e+01    1.378833e+03
  2.271839e+01    1.381706e+03
  2.277140e+01    1.380765e+03
  2.282440e+01    1.379482e+03
  2.287740e+01    1.376161e+03
  2.293041e+01    1.376886e+03
  2.298341e+01    1.376029e+03
  2.303642e+01    1.375169e+03
  2.308942e+01    1.373968e+03
  2.314242e+01    1.370726e+03
  2.319543e+01    1.368318e+03
  2.324843e+01    1.362919e+03
  2.330144e+01    1.360156e+03
  2.335444e+01    1.357081e+03
  2.340744e+01    1.357492e+03
  2.346045e+01    1.355791e+03
  2.351345e+01    1.353884e+03
  2.356646e+01    1.349238e+03
  2.361946e+01    1.349084e+03
  2.367246e+01    1.347238e+03
  2.372547e+01    1.344652e+03
  2.377847e+01    1.340471e+03
  2.383148e+01    1.334480e+03
  2.388448e+01    1.331649e+03
  2.393749e+01    1.326073e+03
  2.399049e+01    1.323777e+03
  2.404349e+01    1.321672e+03
  2.409650e+01    1.314699e+03
  2.414950e+01    1.312497e+03
  2.420251e+01    1.305777e+03
  2.425551e+01    1.298274e+03
  2.430851e+01    1.293015e+03
  2.436152e+01    1.287343e+03
  2.441452e+01    1.282606e+03
  2.446753e+01    1.277490e+03
  2.452053e+01    1.269849e+03
  2.457353e+01    1.262509e+03
  2.462654e+01    1.262438e+03
  2.467954e+01    1.252840e+03
  2.473255e+01    1.243456e+03
  2.478555e+01    1.234163e+03
  2.483855e+01    1.223438e+03
  2.489156e+01    1.216570e+03
  2.494456e+01    1.207062e+03
  2.499757e+01    1.198330e+03
  2.505057e+01    1.188786e+03
  2.510358e+01    1.183478e+03
  2.515658e+01    1.178904e+03
  2.520958e+01    1.176079e+03
  2.526259e+01    1.163789e+03
  2.531559e+01    1.160560e+03
  2.536860e+01    1.154044e+03
  2.542160e+01    1.152359e+03
  2.547460e+01    1.141326e+03
  2.552761e+01    1.135073e+03
  2.558061e+01    1.131931e+03
  2.563362e+01    1.127131e+03
  2.568662e+01    1.113393e+03
  2.573962e+01    1.111335e+03
  2.579263e+01    1.103000e+03
  2.584563e+01    1.093377e+03
  2.589864e+01    1.089078e+03
  2.595164e+01    1.090518e+03
  2.600465e+01    1.087307e+03
  2.605765e+01    1.084333e+03
  2.611065e+01    1.080123e+03
  2.616366e+01    1.081387e+03
  2.621666e+01    1.068534e+03
  2.626967e+01    1.058795e+03
  2.632267e+01    1.054877e+03
  2.637567e+01    1.051667e+03
  2.642868e+01    1.028377e+03
  2.648168e+01    9.951649e+02
