# == pyFAI calibration ==
# Distance Sample to Detector: 0.2945755399789714 m
# PONI: 2.880e-01, 2.450e-01 m
# Rotations: -0.007291 -0.010887 -0.000000 rad
# 
# == Fit2d calibration ==
# Distance Sample-beamCenter: 294.601 mm
# Center: x=1437.174, y=1655.617 pix
# Tilt: 0.751 deg  TiltPlanRot: -56.193 deg
# 
# Detector Pilatus CdTe 2M	 PixelSize= 1.720e-04, 1.720e-04 m
#    Detector has a mask: True 
#    Detector has a dark current: False 
#    detector has a flat field: False 
# 
# Wavelength: 2.0732883349524408e-11 m
# Mask applied: from detector
# Dark current applied: False
# Flat field applied: False
# Polarization factor: 0.9
# Normalization factor: 1.0
# --> /gpfs/current/raw/FMue_2/FMue_2_20231024_120911_00056.dat
#        q_A^-1             I 
  3.263564e-02             nan
  8.563974e-02             nan
  1.386438e-01             nan
  1.916479e-01             nan
  2.446520e-01    3.412178e+04
  2.976561e-01    2.702931e+04
  3.506602e-01    1.471247e+04
  4.036643e-01    1.040352e+04
  4.566684e-01    8.938414e+03
  5.096725e-01    8.608186e+03
  5.626766e-01    8.407674e+03
  6.156807e-01    8.165540e+03
  6.686848e-01    8.078193e+03
  7.216890e-01    8.167391e+03
  7.746931e-01    8.191313e+03
  8.276972e-01    8.290915e+03
  8.807013e-01    8.351110e+03
  9.337054e-01    8.505784e+03
  9.867095e-01    8.653467e+03
  1.039714e+00    8.909984e+03
  1.092718e+00    9.229885e+03
  1.145722e+00    9.717454e+03
  1.198726e+00    1.033840e+04
  1.251730e+00    1.118397e+04
  1.304734e+00    1.252715e+04
  1.357738e+00    1.352755e+04
  1.410742e+00    1.374912e+04
  1.463746e+00    1.380337e+04
  1.516750e+00    1.365863e+04
  1.569755e+00    1.314935e+04
  1.622759e+00    1.248598e+04
  1.675763e+00    1.162635e+04
  1.728767e+00    1.073217e+04
  1.781771e+00    9.930398e+03
  1.834775e+00    9.250821e+03
  1.887779e+00    8.683963e+03
  1.940783e+00    8.320220e+03
  1.993787e+00    8.032334e+03
  2.046791e+00    7.979039e+03
  2.099796e+00    8.499103e+03
  2.152800e+00    1.016926e+04
  2.205804e+00    1.077326e+04
  2.258808e+00    9.064115e+03
  2.311812e+00    7.919172e+03
  2.364816e+00    7.614410e+03
  2.417820e+00    7.931118e+03
  2.470824e+00    9.623650e+03
  2.523828e+00    1.510565e+04
  2.576832e+00    1.869357e+04
  2.629837e+00    1.333047e+04
  2.682841e+00    9.161396e+03
  2.735845e+00    7.488025e+03
  2.788849e+00    6.311494e+03
  2.841853e+00    5.508319e+03
  2.894857e+00    5.155311e+03
  2.947861e+00    5.088499e+03
  3.000865e+00    5.449617e+03
  3.053869e+00    6.996097e+03
  3.106874e+00    9.200433e+03
  3.159878e+00    9.304376e+03
  3.212882e+00    7.785670e+03
  3.265886e+00    5.763987e+03
  3.318890e+00    4.805561e+03
  3.371894e+00    4.572321e+03
  3.424898e+00    4.488692e+03
  3.477902e+00    4.466669e+03
  3.530906e+00    4.461806e+03
  3.583910e+00    4.473787e+03
  3.636915e+00    4.556527e+03
  3.689919e+00    4.783896e+03
  3.742923e+00    5.351503e+03
  3.795927e+00    5.898121e+03
  3.848931e+00    5.709721e+03
  3.901935e+00    5.752830e+03
  3.954939e+00    6.970257e+03
  4.007943e+00    8.983209e+03
  4.060947e+00    8.807222e+03
  4.113951e+00    7.159102e+03
  4.166956e+00    6.295307e+03
  4.219960e+00    6.021097e+03
  4.272964e+00    6.381312e+03
  4.325968e+00    8.520759e+03
  4.378972e+00    1.238269e+04
  4.431976e+00    1.282368e+04
  4.484980e+00    1.148371e+04
  4.537984e+00    8.745745e+03
  4.590988e+00    6.335843e+03
  4.643992e+00    5.347556e+03
  4.696997e+00    5.015529e+03
  4.750001e+00    4.899150e+03
  4.803005e+00    4.905365e+03
  4.856009e+00    5.074805e+03
  4.909013e+00    5.213267e+03
  4.962017e+00    5.242385e+03
  5.015021e+00    5.554044e+03
  5.068025e+00    6.157208e+03
  5.121029e+00    6.125354e+03
  5.174033e+00    5.419368e+03
  5.227038e+00    4.775313e+03
  5.280042e+00    4.456684e+03
  5.333046e+00    4.412331e+03
  5.386050e+00    4.387195e+03
  5.439054e+00    4.215821e+03
  5.492058e+00    4.150865e+03
  5.545062e+00    3.868722e+03
  5.598066e+00    3.583880e+03
  5.651070e+00    3.484476e+03
  5.704074e+00    3.544190e+03
  5.757079e+00    3.782696e+03
  5.810083e+00    3.985983e+03
  5.863087e+00    4.147854e+03
  5.916091e+00    4.675633e+03
  5.969095e+00    4.865203e+03
  6.022099e+00    4.304568e+03
  6.075103e+00    3.914808e+03
  6.128107e+00    3.881594e+03
  6.181111e+00    4.026967e+03
  6.234115e+00    3.999197e+03
  6.287120e+00    3.841089e+03
  6.340124e+00    3.710376e+03
  6.393128e+00    3.579673e+03
  6.446132e+00    3.442135e+03
  6.499136e+00    3.415567e+03
  6.552140e+00    3.505133e+03
  6.605144e+00    3.630176e+03
  6.658148e+00    3.882095e+03
  6.711152e+00    4.149793e+03
  6.764156e+00    3.965054e+03
  6.817161e+00    3.568987e+03
  6.870165e+00    3.381733e+03
  6.923169e+00    3.373718e+03
  6.976173e+00    3.343631e+03
  7.029177e+00    3.283942e+03
  7.082181e+00    3.262145e+03
  7.135185e+00    3.185502e+03
  7.188189e+00    3.108749e+03
  7.241193e+00    3.106402e+03
  7.294197e+00    3.203546e+03
  7.347202e+00    3.394964e+03
  7.400206e+00    3.509128e+03
  7.453210e+00    3.427964e+03
  7.506214e+00    3.489137e+03
  7.559218e+00    3.817197e+03
  7.612222e+00    3.939865e+03
  7.665226e+00    3.687294e+03
  7.718230e+00    3.649350e+03
  7.771234e+00    3.632427e+03
  7.824239e+00    3.471978e+03
  7.877243e+00    3.374225e+03
  7.930247e+00    3.382519e+03
  7.983251e+00    3.493679e+03
  8.036255e+00    3.495068e+03
  8.089259e+00    3.294608e+03
  8.142263e+00    3.109347e+03
  8.195267e+00    3.022735e+03
  8.248271e+00    2.982838e+03
  8.301275e+00    2.947484e+03
  8.354280e+00    2.912093e+03
  8.407284e+00    2.897563e+03
  8.460288e+00    2.907103e+03
  8.513292e+00    2.923385e+03
  8.566296e+00    2.951361e+03
  8.619300e+00    2.929299e+03
  8.672304e+00    2.907221e+03
  8.725308e+00    2.943165e+03
  8.778312e+00    2.959215e+03
  8.831316e+00    2.900366e+03
  8.884321e+00    2.860852e+03
  8.937325e+00    2.859823e+03
  8.990329e+00    2.864730e+03
  9.043333e+00    2.870716e+03
  9.096337e+00    2.908518e+03
  9.149341e+00    2.920635e+03
  9.202345e+00    2.836735e+03
  9.255349e+00    2.750249e+03
  9.308353e+00    2.699529e+03
  9.361357e+00    2.652147e+03
  9.414362e+00    2.624741e+03
  9.467366e+00    2.651564e+03
  9.520370e+00    2.692925e+03
  9.573374e+00    2.732197e+03
  9.626378e+00    2.770672e+03
  9.679382e+00    2.755026e+03
  9.732386e+00    2.728609e+03
  9.785390e+00    2.732542e+03
  9.838394e+00    2.703135e+03
  9.891398e+00    2.647156e+03
  9.944403e+00    2.620150e+03
  9.997407e+00    2.633740e+03
  1.005041e+01    2.665186e+03
  1.010341e+01    2.680847e+03
  1.015642e+01    2.653422e+03
  1.020942e+01    2.571960e+03
  1.026243e+01    2.503720e+03
  1.031543e+01    2.479101e+03
  1.036844e+01    2.480671e+03
  1.042144e+01    2.473451e+03
  1.047444e+01    2.484128e+03
  1.052745e+01    2.497829e+03
  1.058045e+01    2.505899e+03
  1.063346e+01    2.485696e+03
  1.068646e+01    2.465551e+03
  1.073946e+01    2.453673e+03
  1.079247e+01    2.438013e+03
  1.084547e+01    2.426114e+03
  1.089848e+01    2.445265e+03
  1.095148e+01    2.480833e+03
  1.100448e+01    2.511407e+03
  1.105749e+01    2.504191e+03
  1.111049e+01    2.462228e+03
  1.116350e+01    2.417799e+03
  1.121650e+01    2.393505e+03
  1.126951e+01    2.383793e+03
  1.132251e+01    2.390192e+03
  1.137551e+01    2.408069e+03
  1.142852e+01    2.437249e+03
  1.148152e+01    2.454666e+03
  1.153453e+01    2.472294e+03
  1.158753e+01    2.483024e+03
  1.164053e+01    2.450099e+03
  1.169354e+01    2.406837e+03
  1.174654e+01    2.411207e+03
  1.179955e+01    2.405298e+03
  1.185255e+01    2.408606e+03
  1.190555e+01    2.390079e+03
  1.195856e+01    2.354384e+03
  1.201156e+01    2.324444e+03
  1.206457e+01    2.307074e+03
  1.211757e+01    2.314612e+03
  1.217057e+01    2.332635e+03
  1.222358e+01    2.352307e+03
  1.227658e+01    2.355298e+03
  1.232959e+01    2.336540e+03
  1.238259e+01    2.307248e+03
  1.243560e+01    2.297034e+03
  1.248860e+01    2.288219e+03
  1.254160e+01    2.295220e+03
  1.259461e+01    2.296548e+03
  1.264761e+01    2.292601e+03
  1.270062e+01    2.279568e+03
  1.275362e+01    2.265432e+03
  1.280662e+01    2.253213e+03
  1.285963e+01    2.244306e+03
  1.291263e+01    2.237511e+03
  1.296564e+01    2.237065e+03
  1.301864e+01    2.241004e+03
  1.307164e+01    2.245778e+03
  1.312465e+01    2.246138e+03
  1.317765e+01    2.241574e+03
  1.323066e+01    2.227917e+03
  1.328366e+01    2.228655e+03
  1.333667e+01    2.241860e+03
  1.338967e+01    2.247810e+03
  1.344267e+01    2.245549e+03
  1.349568e+01    2.216551e+03
  1.354868e+01    2.194916e+03
  1.360169e+01    2.185708e+03
  1.365469e+01    2.182704e+03
  1.370769e+01    2.184990e+03
  1.376070e+01    2.177341e+03
  1.381370e+01    2.165670e+03
  1.386671e+01    2.150981e+03
  1.391971e+01    2.138143e+03
  1.397271e+01    2.135702e+03
  1.402572e+01    2.136480e+03
  1.407872e+01    2.135149e+03
  1.413173e+01    2.126645e+03
  1.418473e+01    2.114868e+03
  1.423773e+01    2.105532e+03
  1.429074e+01    2.094729e+03
  1.434374e+01    2.098995e+03
  1.439675e+01    2.092736e+03
  1.444975e+01    2.089650e+03
  1.450276e+01    2.082341e+03
  1.455576e+01    2.071694e+03
  1.460876e+01    2.065447e+03
  1.466177e+01    2.063122e+03
  1.471477e+01    2.063316e+03
  1.476778e+01    2.064556e+03
  1.482078e+01    2.056137e+03
  1.487378e+01    2.046763e+03
  1.492679e+01    2.038820e+03
  1.497979e+01    2.036854e+03
  1.503280e+01    2.035675e+03
  1.508580e+01    2.036012e+03
  1.513880e+01    2.037070e+03
  1.519181e+01    2.043681e+03
  1.524481e+01    2.070944e+03
  1.529782e+01    2.058718e+03
  1.535082e+01    2.054510e+03
  1.540382e+01    2.050961e+03
  1.545683e+01    2.036820e+03
  1.550983e+01    2.036199e+03
  1.556284e+01    2.031012e+03
  1.561584e+01    2.028301e+03
  1.566885e+01    2.029718e+03
  1.572185e+01    2.028709e+03
  1.577485e+01    2.027602e+03
  1.582786e+01    2.021427e+03
  1.588086e+01    2.013494e+03
  1.593387e+01    2.009758e+03
  1.598687e+01    2.003840e+03
  1.603987e+01    1.994210e+03
  1.609288e+01    1.983001e+03
  1.614588e+01    1.973767e+03
  1.619889e+01    1.977199e+03
  1.625189e+01    1.981742e+03
  1.630489e+01    1.978998e+03
  1.635790e+01    1.975409e+03
  1.641090e+01    1.971865e+03
  1.646391e+01    1.969703e+03
  1.651691e+01    1.971727e+03
  1.656992e+01    1.970871e+03
  1.662292e+01    1.965883e+03
  1.667592e+01    1.962407e+03
  1.672893e+01    1.957490e+03
  1.678193e+01    1.956269e+03
  1.683494e+01    1.952153e+03
  1.688794e+01    1.954693e+03
  1.694094e+01    1.952619e+03
  1.699395e+01    1.949723e+03
  1.704695e+01    1.946570e+03
  1.709996e+01    1.945392e+03
  1.715296e+01    1.941267e+03
  1.720596e+01    1.935324e+03
  1.725897e+01    1.930302e+03
  1.731197e+01    1.925945e+03
  1.736498e+01    1.918537e+03
  1.741798e+01    1.917332e+03
  1.747098e+01    1.917114e+03
  1.752399e+01    1.914074e+03
  1.757699e+01    1.912692e+03
  1.763000e+01    1.911289e+03
  1.768300e+01    1.906719e+03
  1.773601e+01    1.904972e+03
  1.778901e+01    1.899554e+03
  1.784201e+01    1.891623e+03
  1.789502e+01    1.906830e+03
  1.794802e+01    1.886887e+03
  1.800103e+01    1.884095e+03
  1.805403e+01    1.879989e+03
  1.810703e+01    1.872340e+03
  1.816004e+01    1.868267e+03
  1.821304e+01    1.865125e+03
  1.826605e+01    1.868001e+03
  1.831905e+01    1.856171e+03
  1.837205e+01    1.853366e+03
  1.842506e+01    1.851204e+03
  1.847806e+01    1.849456e+03
  1.853107e+01    1.845361e+03
  1.858407e+01    1.845655e+03
  1.863708e+01    1.844560e+03
  1.869008e+01    1.860637e+03
  1.874308e+01    1.851832e+03
  1.879609e+01    1.847193e+03
  1.884909e+01    1.841849e+03
  1.890210e+01    1.837595e+03
  1.895510e+01    1.832827e+03
  1.900810e+01    1.831120e+03
  1.906111e+01    1.826378e+03
  1.911411e+01    1.820425e+03
  1.916712e+01    1.816784e+03
  1.922012e+01    1.814034e+03
  1.927312e+01    1.806600e+03
  1.932613e+01    1.803473e+03
  1.937913e+01    1.799141e+03
  1.943214e+01    1.795286e+03
  1.948514e+01    1.791133e+03
  1.953814e+01    1.786901e+03
  1.959115e+01    1.783398e+03
  1.964415e+01    1.776898e+03
  1.969716e+01    1.775422e+03
  1.975016e+01    1.771038e+03
  1.980317e+01    1.767553e+03
  1.985617e+01    1.763370e+03
  1.990917e+01    1.757180e+03
  1.996218e+01    1.753302e+03
  2.001518e+01    1.750571e+03
  2.006819e+01    1.743500e+03
  2.012119e+01    1.737297e+03
  2.017419e+01    1.734507e+03
  2.022720e+01    1.728383e+03
  2.028020e+01    1.719569e+03
  2.033321e+01    1.714719e+03
  2.038621e+01    1.708556e+03
  2.043921e+01    1.705798e+03
  2.049222e+01    1.699620e+03
  2.054522e+01    1.696136e+03
  2.059823e+01    1.690213e+03
  2.065123e+01    1.685259e+03
  2.070424e+01    1.680269e+03
  2.075724e+01    1.679260e+03
  2.081024e+01    1.686423e+03
  2.086325e+01    1.678812e+03
  2.091625e+01    1.662293e+03
  2.096926e+01    1.648116e+03
  2.102226e+01    1.637607e+03
  2.107526e+01    1.628428e+03
  2.112827e+01    1.618222e+03
  2.118127e+01    1.610225e+03
  2.123428e+01    1.599107e+03
  2.128728e+01    1.590406e+03
  2.134028e+01    1.580958e+03
  2.139329e+01    1.570892e+03
  2.144629e+01    1.562038e+03
  2.149930e+01    1.555759e+03
  2.155230e+01    1.546036e+03
  2.160530e+01    1.538239e+03
  2.165831e+01    1.526586e+03
  2.171131e+01    1.521424e+03
  2.176432e+01    1.517872e+03
  2.181732e+01    1.506485e+03
  2.187033e+01    1.497833e+03
  2.192333e+01    1.492528e+03
  2.197633e+01    1.482191e+03
  2.202934e+01    1.473620e+03
  2.208234e+01    1.464024e+03
  2.213535e+01    1.454447e+03
  2.218835e+01    1.447409e+03
  2.224135e+01    1.438301e+03
  2.229436e+01    1.430741e+03
  2.234736e+01    1.422771e+03
  2.240037e+01    1.412343e+03
  2.245337e+01    1.406286e+03
  2.250637e+01    1.399548e+03
  2.255938e+01    1.390294e+03
  2.261238e+01    1.390700e+03
  2.266539e+01    1.391535e+03
  2.271839e+01    1.392786e+03
  2.277140e+01    1.390123e+03
  2.282440e+01    1.390998e+03
  2.287740e+01    1.389023e+03
  2.293041e+01    1.386814e+03
  2.298341e+01    1.385336e+03
  2.303642e+01    1.385662e+03
  2.308942e+01    1.383013e+03
  2.314242e+01    1.380315e+03
  2.319543e+01    1.376536e+03
  2.324843e+01    1.373230e+03
  2.330144e+01    1.369014e+03
  2.335444e+01    1.367207e+03
  2.340744e+01    1.366655e+03
  2.346045e+01    1.365225e+03
  2.351345e+01    1.363197e+03
  2.356646e+01    1.358272e+03
  2.361946e+01    1.359023e+03
  2.367246e+01    1.358576e+03
  2.372547e+01    1.353248e+03
  2.377847e+01    1.348678e+03
  2.383148e+01    1.344611e+03
  2.388448e+01    1.341394e+03
  2.393749e+01    1.337749e+03
  2.399049e+01    1.336400e+03
  2.404349e+01    1.336806e+03
  2.409650e+01    1.331038e+03
  2.414950e+01    1.329278e+03
  2.420251e+01    1.322235e+03
  2.425551e+01    1.316100e+03
  2.430851e+01    1.311197e+03
  2.436152e+01    1.307472e+03
  2.441452e+01    1.299556e+03
  2.446753e+01    1.296573e+03
  2.452053e+01    1.288584e+03
  2.457353e+01    1.286381e+03
  2.462654e+01    1.283192e+03
  2.467954e+01    1.271584e+03
  2.473255e+01    1.265478e+03
  2.478555e+01    1.255146e+03
  2.483855e+01    1.243671e+03
  2.489156e+01    1.236130e+03
  2.494456e+01    1.227778e+03
  2.499757e+01    1.216413e+03
  2.505057e+01    1.205184e+03
  2.510358e+01    1.201180e+03
  2.515658e+01    1.194784e+03
  2.520958e+01    1.190579e+03
  2.526259e+01    1.181163e+03
  2.531559e+01    1.175493e+03
  2.536860e+01    1.168397e+03
  2.542160e+01    1.163891e+03
  2.547460e+01    1.152844e+03
  2.552761e+01    1.142246e+03
  2.558061e+01    1.139778e+03
  2.563362e+01    1.141523e+03
  2.568662e+01    1.126654e+03
  2.573962e+01    1.122091e+03
  2.579263e+01    1.109111e+03
  2.584563e+01    1.105167e+03
  2.589864e+01    1.100548e+03
  2.595164e+01    1.095044e+03
  2.600465e+01    1.094729e+03
  2.605765e+01    1.093933e+03
  2.611065e+01    1.090174e+03
  2.616366e+01    1.085669e+03
  2.621666e+01    1.077374e+03
  2.626967e+01    1.069038e+03
  2.632267e+01    1.066689e+03
  2.637567e+01    1.057056e+03
  2.642868e+01    1.033006e+03
  2.648168e+01    1.029923e+03
