# == pyFAI calibration ==
# Distance Sample to Detector: 0.2945755399789714 m
# PONI: 2.880e-01, 2.450e-01 m
# Rotations: -0.007291 -0.010887 -0.000000 rad
# 
# == Fit2d calibration ==
# Distance Sample-beamCenter: 294.601 mm
# Center: x=1437.174, y=1655.617 pix
# Tilt: 0.751 deg  TiltPlanRot: -56.193 deg
# 
# Detector Pilatus CdTe 2M	 PixelSize= 1.720e-04, 1.720e-04 m
#    Detector has a mask: True 
#    Detector has a dark current: False 
#    detector has a flat field: False 
# 
# Wavelength: 2.0732883349524408e-11 m
# Mask applied: from detector
# Dark current applied: False
# Flat field applied: False
# Polarization factor: 0.9
# Normalization factor: 1.0
# --> /gpfs/current/raw/FMue_2/FMue_2_20231024_120911_00366.dat
#        q_A^-1             I 
  3.263564e-02             nan
  8.563974e-02             nan
  1.386438e-01             nan
  1.916479e-01             nan
  2.446520e-01    3.817639e+04
  2.976561e-01    2.952162e+04
  3.506602e-01    1.578043e+04
  4.036643e-01    1.103622e+04
  4.566684e-01    9.411492e+03
  5.096725e-01    8.960098e+03
  5.626766e-01    8.645915e+03
  6.156807e-01    8.299397e+03
  6.686848e-01    8.130412e+03
  7.216890e-01    8.190863e+03
  7.746931e-01    8.179367e+03
  8.276972e-01    8.269997e+03
  8.807013e-01    8.324213e+03
  9.337054e-01    8.466832e+03
  9.867095e-01    8.625963e+03
  1.039714e+00    8.876240e+03
  1.092718e+00    9.199794e+03
  1.145722e+00    9.687110e+03
  1.198726e+00    1.026452e+04
  1.251730e+00    1.096213e+04
  1.304734e+00    1.186023e+04
  1.357738e+00    1.272829e+04
  1.410742e+00    1.339997e+04
  1.463746e+00    1.372800e+04
  1.516750e+00    1.368233e+04
  1.569755e+00    1.320602e+04
  1.622759e+00    1.253077e+04
  1.675763e+00    1.167285e+04
  1.728767e+00    1.078933e+04
  1.781771e+00    9.982928e+03
  1.834775e+00    9.314974e+03
  1.887779e+00    8.741602e+03
  1.940783e+00    8.375187e+03
  1.993787e+00    8.053158e+03
  2.046791e+00    7.862052e+03
  2.099796e+00    7.782102e+03
  2.152800e+00    7.787507e+03
  2.205804e+00    7.815649e+03
  2.258808e+00    7.802495e+03
  2.311812e+00    7.747187e+03
  2.364816e+00    7.748902e+03
  2.417820e+00    7.991093e+03
  2.470824e+00    8.564082e+03
  2.523828e+00    9.483226e+03
  2.576832e+00    1.013113e+04
  2.629837e+00    9.239922e+03
  2.682841e+00    7.967399e+03
  2.735845e+00    7.435086e+03
  2.788849e+00    6.817705e+03
  2.841853e+00    6.520765e+03
  2.894857e+00    7.034713e+03
  2.947861e+00    8.711615e+03
  3.000865e+00    1.172987e+04
  3.053869e+00    1.352500e+04
  3.106874e+00    1.158117e+04
  3.159878e+00    9.982861e+03
  3.212882e+00    8.502519e+03
  3.265886e+00    6.525007e+03
  3.318890e+00    5.641648e+03
  3.371894e+00    5.529909e+03
  3.424898e+00    5.815899e+03
  3.477902e+00    6.468367e+03
  3.530906e+00    6.479165e+03
  3.583910e+00    5.640363e+03
  3.636915e+00    5.060151e+03
  3.689919e+00    4.887339e+03
  3.742923e+00    4.879077e+03
  3.795927e+00    4.939350e+03
  3.848931e+00    5.035088e+03
  3.901935e+00    5.194361e+03
  3.954939e+00    5.414986e+03
  4.007943e+00    5.720104e+03
  4.060947e+00    6.077702e+03
  4.113951e+00    6.479560e+03
  4.166956e+00    7.028854e+03
  4.219960e+00    7.642873e+03
  4.272964e+00    7.353201e+03
  4.325968e+00    6.844930e+03
  4.378972e+00    7.377229e+03
  4.431976e+00    9.455666e+03
  4.484980e+00    1.047308e+04
  4.537984e+00    8.271963e+03
  4.590988e+00    6.232120e+03
  4.643992e+00    5.497849e+03
  4.696997e+00    5.299973e+03
  4.750001e+00    5.258076e+03
  4.803005e+00    5.307833e+03
  4.856009e+00    5.516208e+03
  4.909013e+00    6.036415e+03
  4.962017e+00    6.736387e+03
  5.015021e+00    6.578069e+03
  5.068025e+00    5.869432e+03
  5.121029e+00    5.544828e+03
  5.174033e+00    5.348961e+03
  5.227038e+00    5.012840e+03
  5.280042e+00    4.668981e+03
  5.333046e+00    4.425309e+03
  5.386050e+00    4.284842e+03
  5.439054e+00    4.285786e+03
  5.492058e+00    4.250766e+03
  5.545062e+00    3.970090e+03
  5.598066e+00    3.763524e+03
  5.651070e+00    3.722623e+03
  5.704074e+00    3.803918e+03
  5.757079e+00    4.111978e+03
  5.810083e+00    4.685090e+03
  5.863087e+00    4.765319e+03
  5.916091e+00    4.314282e+03
  5.969095e+00    4.117072e+03
  6.022099e+00    4.119053e+03
  6.075103e+00    4.203459e+03
  6.128107e+00    4.095526e+03
  6.181111e+00    3.865571e+03
  6.234115e+00    3.822225e+03
  6.287120e+00    3.882542e+03
  6.340124e+00    3.865677e+03
  6.393128e+00    3.795999e+03
  6.446132e+00    3.690023e+03
  6.499136e+00    3.643612e+03
  6.552140e+00    3.609117e+03
  6.605144e+00    3.602136e+03
  6.658148e+00    3.606145e+03
  6.711152e+00    3.544625e+03
  6.764156e+00    3.461072e+03
  6.817161e+00    3.369084e+03
  6.870165e+00    3.288506e+03
  6.923169e+00    3.235505e+03
  6.976173e+00    3.280463e+03
  7.029177e+00    3.355135e+03
  7.082181e+00    3.374251e+03
  7.135185e+00    3.306376e+03
  7.188189e+00    3.241883e+03
  7.241193e+00    3.230132e+03
  7.294197e+00    3.269622e+03
  7.347202e+00    3.270223e+03
  7.400206e+00    3.253614e+03
  7.453210e+00    3.251152e+03
  7.506214e+00    3.277823e+03
  7.559218e+00    3.332878e+03
  7.612222e+00    3.470068e+03
  7.665226e+00    3.689885e+03
  7.718230e+00    3.869760e+03
  7.771234e+00    3.806049e+03
  7.824239e+00    3.632349e+03
  7.877243e+00    3.482739e+03
  7.930247e+00    3.286521e+03
  7.983251e+00    3.151621e+03
  8.036255e+00    3.097979e+03
  8.089259e+00    3.076777e+03
  8.142263e+00    3.073500e+03
  8.195267e+00    3.061938e+03
  8.248271e+00    3.050620e+03
  8.301275e+00    3.029146e+03
  8.354280e+00    3.013084e+03
  8.407284e+00    3.006635e+03
  8.460288e+00    3.001517e+03
  8.513292e+00    3.003162e+03
  8.566296e+00    3.040118e+03
  8.619300e+00    3.061552e+03
  8.672304e+00    3.032639e+03
  8.725308e+00    2.989278e+03
  8.778312e+00    2.961134e+03
  8.831316e+00    2.950498e+03
  8.884321e+00    2.953599e+03
  8.937325e+00    2.949485e+03
  8.990329e+00    2.912175e+03
  9.043333e+00    2.863169e+03
  9.096337e+00    2.845464e+03
  9.149341e+00    2.839978e+03
  9.202345e+00    2.782657e+03
  9.255349e+00    2.727237e+03
  9.308353e+00    2.692946e+03
  9.361357e+00    2.678058e+03
  9.414362e+00    2.662743e+03
  9.467366e+00    2.664069e+03
  9.520370e+00    2.642544e+03
  9.573374e+00    2.616381e+03
  9.626378e+00    2.601722e+03
  9.679382e+00    2.599218e+03
  9.732386e+00    2.597331e+03
  9.785390e+00    2.594559e+03
  9.838394e+00    2.593931e+03
  9.891398e+00    2.602148e+03
  9.944403e+00    2.605385e+03
  9.997407e+00    2.589438e+03
  1.005041e+01    2.560619e+03
  1.010341e+01    2.520696e+03
  1.015642e+01    2.500971e+03
  1.020942e+01    2.491723e+03
  1.026243e+01    2.488889e+03
  1.031543e+01    2.514031e+03
  1.036844e+01    2.567326e+03
  1.042144e+01    2.587203e+03
  1.047444e+01    2.578813e+03
  1.052745e+01    2.559931e+03
  1.058045e+01    2.543506e+03
  1.063346e+01    2.512908e+03
  1.068646e+01    2.489686e+03
  1.073946e+01    2.466914e+03
  1.079247e+01    2.454294e+03
  1.084547e+01    2.442834e+03
  1.089848e+01    2.440087e+03
  1.095148e+01    2.441173e+03
  1.100448e+01    2.430105e+03
  1.105749e+01    2.425745e+03
  1.111049e+01    2.425605e+03
  1.116350e+01    2.414370e+03
  1.121650e+01    2.403466e+03
  1.126951e+01    2.391734e+03
  1.132251e+01    2.381290e+03
  1.137551e+01    2.375117e+03
  1.142852e+01    2.373174e+03
  1.148152e+01    2.372692e+03
  1.153453e+01    2.373181e+03
  1.158753e+01    2.367148e+03
  1.164053e+01    2.361460e+03
  1.169354e+01    2.363401e+03
  1.174654e+01    2.383680e+03
  1.179955e+01    2.370713e+03
  1.185255e+01    2.358957e+03
  1.190555e+01    2.342955e+03
  1.195856e+01    2.328095e+03
  1.201156e+01    2.319863e+03
  1.206457e+01    2.311142e+03
  1.211757e+01    2.314389e+03
  1.217057e+01    2.315363e+03
  1.222358e+01    2.311857e+03
  1.227658e+01    2.310418e+03
  1.232959e+01    2.312626e+03
  1.238259e+01    2.305403e+03
  1.243560e+01    2.307966e+03
  1.248860e+01    2.308691e+03
  1.254160e+01    2.315481e+03
  1.259461e+01    2.313939e+03
  1.264761e+01    2.304185e+03
  1.270062e+01    2.290124e+03
  1.275362e+01    2.278612e+03
  1.280662e+01    2.265976e+03
  1.285963e+01    2.257757e+03
  1.291263e+01    2.247679e+03
  1.296564e+01    2.239769e+03
  1.301864e+01    2.234253e+03
  1.307164e+01    2.229355e+03
  1.312465e+01    2.223945e+03
  1.317765e+01    2.218984e+03
  1.323066e+01    2.198978e+03
  1.328366e+01    2.187570e+03
  1.333667e+01    2.181059e+03
  1.338967e+01    2.177748e+03
  1.344267e+01    2.189865e+03
  1.349568e+01    2.188678e+03
  1.354868e+01    2.178719e+03
  1.360169e+01    2.166264e+03
  1.365469e+01    2.151017e+03
  1.370769e+01    2.140871e+03
  1.376070e+01    2.129509e+03
  1.381370e+01    2.122684e+03
  1.386671e+01    2.115923e+03
  1.391971e+01    2.106334e+03
  1.397271e+01    2.103720e+03
  1.402572e+01    2.099646e+03
  1.407872e+01    2.092997e+03
  1.413173e+01    2.087067e+03
  1.418473e+01    2.084366e+03
  1.423773e+01    2.079770e+03
  1.429074e+01    2.072975e+03
  1.434374e+01    2.072407e+03
  1.439675e+01    2.065953e+03
  1.444975e+01    2.065049e+03
  1.450276e+01    2.057382e+03
  1.455576e+01    2.052832e+03
  1.460876e+01    2.048267e+03
  1.466177e+01    2.045031e+03
  1.471477e+01    2.044302e+03
  1.476778e+01    2.044086e+03
  1.482078e+01    2.043158e+03
  1.487378e+01    2.039596e+03
  1.492679e+01    2.035738e+03
  1.497979e+01    2.030384e+03
  1.503280e+01    2.027807e+03
  1.508580e+01    2.026487e+03
  1.513880e+01    2.026707e+03
  1.519181e+01    2.033278e+03
  1.524481e+01    2.056995e+03
  1.529782e+01    2.036420e+03
  1.535082e+01    2.026784e+03
  1.540382e+01    2.020074e+03
  1.545683e+01    2.010350e+03
  1.550983e+01    2.014373e+03
  1.556284e+01    2.010823e+03
  1.561584e+01    2.003997e+03
  1.566885e+01    2.000724e+03
  1.572185e+01    1.999347e+03
  1.577485e+01    1.997211e+03
  1.582786e+01    1.992848e+03
  1.588086e+01    1.990867e+03
  1.593387e+01    1.989036e+03
  1.598687e+01    1.985536e+03
  1.603987e+01    1.976697e+03
  1.609288e+01    1.972070e+03
  1.614588e+01    1.963948e+03
  1.619889e+01    1.965212e+03
  1.625189e+01    1.967481e+03
  1.630489e+01    1.962656e+03
  1.635790e+01    1.960621e+03
  1.641090e+01    1.956662e+03
  1.646391e+01    1.949154e+03
  1.651691e+01    1.945500e+03
  1.656992e+01    1.941684e+03
  1.662292e+01    1.937574e+03
  1.667592e+01    1.936256e+03
  1.672893e+01    1.932811e+03
  1.678193e+01    1.931470e+03
  1.683494e+01    1.927986e+03
  1.688794e+01    1.926849e+03
  1.694094e+01    1.924361e+03
  1.699395e+01    1.919137e+03
  1.704695e+01    1.914427e+03
  1.709996e+01    1.912922e+03
  1.715296e+01    1.909542e+03
  1.720596e+01    1.906878e+03
  1.725897e+01    1.901059e+03
  1.731197e+01    1.900405e+03
  1.736498e+01    1.892708e+03
  1.741798e+01    1.893788e+03
  1.747098e+01    1.892047e+03
  1.752399e+01    1.888569e+03
  1.757699e+01    1.884787e+03
  1.763000e+01    1.880460e+03
  1.768300e+01    1.876850e+03
  1.773601e+01    1.871826e+03
  1.778901e+01    1.867592e+03
  1.784201e+01    1.860976e+03
  1.789502e+01    1.859148e+03
  1.794802e+01    1.854194e+03
  1.800103e+01    1.853302e+03
  1.805403e+01    1.849098e+03
  1.810703e+01    1.842711e+03
  1.816004e+01    1.840664e+03
  1.821304e+01    1.836381e+03
  1.826605e+01    1.840221e+03
  1.831905e+01    1.830714e+03
  1.837205e+01    1.826444e+03
  1.842506e+01    1.822501e+03
  1.847806e+01    1.821881e+03
  1.853107e+01    1.820729e+03
  1.858407e+01    1.819288e+03
  1.863708e+01    1.819540e+03
  1.869008e+01    1.832591e+03
  1.874308e+01    1.822431e+03
  1.879609e+01    1.816035e+03
  1.884909e+01    1.813897e+03
  1.890210e+01    1.809398e+03
  1.895510e+01    1.802509e+03
  1.900810e+01    1.798844e+03
  1.906111e+01    1.791798e+03
  1.911411e+01    1.786123e+03
  1.916712e+01    1.781778e+03
  1.922012e+01    1.777942e+03
  1.927312e+01    1.770335e+03
  1.932613e+01    1.768626e+03
  1.937913e+01    1.762307e+03
  1.943214e+01    1.758464e+03
  1.948514e+01    1.753297e+03
  1.953814e+01    1.749318e+03
  1.959115e+01    1.744330e+03
  1.964415e+01    1.738588e+03
  1.969716e+01    1.735610e+03
  1.975016e+01    1.730813e+03
  1.980317e+01    1.727118e+03
  1.985617e+01    1.720691e+03
  1.990917e+01    1.716172e+03
  1.996218e+01    1.710511e+03
  2.001518e+01    1.707578e+03
  2.006819e+01    1.700060e+03
  2.012119e+01    1.693282e+03
  2.017419e+01    1.691105e+03
  2.022720e+01    1.684281e+03
  2.028020e+01    1.676950e+03
  2.033321e+01    1.671197e+03
  2.038621e+01    1.665088e+03
  2.043921e+01    1.661571e+03
  2.049222e+01    1.657234e+03
  2.054522e+01    1.651431e+03
  2.059823e+01    1.648220e+03
  2.065123e+01    1.642585e+03
  2.070424e+01    1.638321e+03
  2.075724e+01    1.637917e+03
  2.081024e+01    1.643642e+03
  2.086325e+01    1.633943e+03
  2.091625e+01    1.617471e+03
  2.096926e+01    1.604106e+03
  2.102226e+01    1.592624e+03
  2.107526e+01    1.584606e+03
  2.112827e+01    1.574387e+03
  2.118127e+01    1.566550e+03
  2.123428e+01    1.555686e+03
  2.128728e+01    1.547217e+03
  2.134028e+01    1.539243e+03
  2.139329e+01    1.529123e+03
  2.144629e+01    1.519873e+03
  2.149930e+01    1.511046e+03
  2.155230e+01    1.503006e+03
  2.160530e+01    1.495213e+03
  2.165831e+01    1.485056e+03
  2.171131e+01    1.478561e+03
  2.176432e+01    1.473092e+03
  2.181732e+01    1.464102e+03
  2.187033e+01    1.453884e+03
  2.192333e+01    1.448665e+03
  2.197633e+01    1.440354e+03
  2.202934e+01    1.433074e+03
  2.208234e+01    1.421724e+03
  2.213535e+01    1.414016e+03
  2.218835e+01    1.405512e+03
  2.224135e+01    1.396755e+03
  2.229436e+01    1.389615e+03
  2.234736e+01    1.382068e+03
  2.240037e+01    1.370918e+03
  2.245337e+01    1.365249e+03
  2.250637e+01    1.357285e+03
  2.255938e+01    1.351546e+03
  2.261238e+01    1.354171e+03
  2.266539e+01    1.353084e+03
  2.271839e+01    1.355650e+03
  2.277140e+01    1.354433e+03
  2.282440e+01    1.353167e+03
  2.287740e+01    1.350460e+03
  2.293041e+01    1.351055e+03
  2.298341e+01    1.350085e+03
  2.303642e+01    1.349452e+03
  2.308942e+01    1.347935e+03
  2.314242e+01    1.344882e+03
  2.319543e+01    1.341535e+03
  2.324843e+01    1.337582e+03
  2.330144e+01    1.334526e+03
  2.335444e+01    1.333920e+03
  2.340744e+01    1.330195e+03
  2.346045e+01    1.330090e+03
  2.351345e+01    1.328748e+03
  2.356646e+01    1.325370e+03
  2.361946e+01    1.322765e+03
  2.367246e+01    1.322268e+03
  2.372547e+01    1.316272e+03
  2.377847e+01    1.314371e+03
  2.383148e+01    1.307928e+03
  2.388448e+01    1.303535e+03
  2.393749e+01    1.301759e+03
  2.399049e+01    1.298682e+03
  2.404349e+01    1.297607e+03
  2.409650e+01    1.292461e+03
  2.414950e+01    1.285241e+03
  2.420251e+01    1.278313e+03
  2.425551e+01    1.274214e+03
  2.430851e+01    1.267728e+03
  2.436152e+01    1.261162e+03
  2.441452e+01    1.256610e+03
  2.446753e+01    1.249262e+03
  2.452053e+01    1.242095e+03
  2.457353e+01    1.240083e+03
  2.462654e+01    1.234245e+03
  2.467954e+01    1.225073e+03
  2.473255e+01    1.214999e+03
  2.478555e+01    1.209237e+03
  2.483855e+01    1.198487e+03
  2.489156e+01    1.189270e+03
  2.494456e+01    1.183283e+03
  2.499757e+01    1.174803e+03
  2.505057e+01    1.164839e+03
  2.510358e+01    1.159604e+03
  2.515658e+01    1.155505e+03
  2.520958e+01    1.149360e+03
  2.526259e+01    1.140623e+03
  2.531559e+01    1.138415e+03
  2.536860e+01    1.131766e+03
  2.542160e+01    1.125611e+03
  2.547460e+01    1.119928e+03
  2.552761e+01    1.111788e+03
  2.558061e+01    1.107874e+03
  2.563362e+01    1.105650e+03
  2.568662e+01    1.095529e+03
  2.573962e+01    1.085898e+03
  2.579263e+01    1.081683e+03
  2.584563e+01    1.071555e+03
  2.589864e+01    1.070249e+03
  2.595164e+01    1.067590e+03
  2.600465e+01    1.066291e+03
  2.605765e+01    1.062268e+03
  2.611065e+01    1.061069e+03
  2.616366e+01    1.057271e+03
  2.621666e+01    1.052722e+03
  2.626967e+01    1.034469e+03
  2.632267e+01    1.038997e+03
  2.637567e+01    1.033571e+03
  2.642868e+01    1.012581e+03
  2.648168e+01    9.893038e+02
