# == pyFAI calibration ==
# Distance Sample to Detector: 0.2945755399789714 m
# PONI: 2.880e-01, 2.450e-01 m
# Rotations: -0.007291 -0.010887 -0.000000 rad
# 
# == Fit2d calibration ==
# Distance Sample-beamCenter: 294.601 mm
# Center: x=1437.174, y=1655.617 pix
# Tilt: 0.751 deg  TiltPlanRot: -56.193 deg
# 
# Detector Pilatus CdTe 2M	 PixelSize= 1.720e-04, 1.720e-04 m
#    Detector has a mask: True 
#    Detector has a dark current: False 
#    detector has a flat field: False 
# 
# Wavelength: 2.0732883349524408e-11 m
# Mask applied: from detector
# Dark current applied: False
# Flat field applied: False
# Polarization factor: 0.9
# Normalization factor: 1.0
# --> /gpfs/current/raw/FMue_2/FMue_2_20231024_120911_00364.dat
#        q_A^-1             I 
  3.263564e-02             nan
  8.563974e-02             nan
  1.386438e-01             nan
  1.916479e-01             nan
  2.446520e-01    3.882261e+04
  2.976561e-01    2.979950e+04
  3.506602e-01    1.587678e+04
  4.036643e-01    1.110939e+04
  4.566684e-01    9.447221e+03
  5.096725e-01    8.985662e+03
  5.626766e-01    8.669194e+03
  6.156807e-01    8.321646e+03
  6.686848e-01    8.161800e+03
  7.216890e-01    8.212731e+03
  7.746931e-01    8.213879e+03
  8.276972e-01    8.293448e+03
  8.807013e-01    8.359299e+03
  9.337054e-01    8.502238e+03
  9.867095e-01    8.660866e+03
  1.039714e+00    8.913641e+03
  1.092718e+00    9.241122e+03
  1.145722e+00    9.724209e+03
  1.198726e+00    1.030455e+04
  1.251730e+00    1.100235e+04
  1.304734e+00    1.190016e+04
  1.357738e+00    1.277737e+04
  1.410742e+00    1.345518e+04
  1.463746e+00    1.378848e+04
  1.516750e+00    1.374420e+04
  1.569755e+00    1.324541e+04
  1.622759e+00    1.258934e+04
  1.675763e+00    1.172551e+04
  1.728767e+00    1.083046e+04
  1.781771e+00    1.002153e+04
  1.834775e+00    9.353605e+03
  1.887779e+00    8.777453e+03
  1.940783e+00    8.401112e+03
  1.993787e+00    8.082082e+03
  2.046791e+00    7.892168e+03
  2.099796e+00    7.823588e+03
  2.152800e+00    7.811016e+03
  2.205804e+00    7.847108e+03
  2.258808e+00    7.835125e+03
  2.311812e+00    7.782054e+03
  2.364816e+00    7.785257e+03
  2.417820e+00    8.023475e+03
  2.470824e+00    8.600058e+03
  2.523828e+00    9.529117e+03
  2.576832e+00    1.018199e+04
  2.629837e+00    9.286637e+03
  2.682841e+00    8.002340e+03
  2.735845e+00    7.471692e+03
  2.788849e+00    6.851581e+03
  2.841853e+00    6.547621e+03
  2.894857e+00    7.054678e+03
  2.947861e+00    8.745008e+03
  3.000865e+00    1.176470e+04
  3.053869e+00    1.354051e+04
  3.106874e+00    1.160896e+04
  3.159878e+00    1.002069e+04
  3.212882e+00    8.530664e+03
  3.265886e+00    6.543067e+03
  3.318890e+00    5.667223e+03
  3.371894e+00    5.551364e+03
  3.424898e+00    5.832324e+03
  3.477902e+00    6.480044e+03
  3.530906e+00    6.497636e+03
  3.583910e+00    5.660915e+03
  3.636915e+00    5.077834e+03
  3.689919e+00    4.905778e+03
  3.742923e+00    4.896911e+03
  3.795927e+00    4.962936e+03
  3.848931e+00    5.055205e+03
  3.901935e+00    5.219083e+03
  3.954939e+00    5.437157e+03
  4.007943e+00    5.742801e+03
  4.060947e+00    6.109556e+03
  4.113951e+00    6.509552e+03
  4.166956e+00    7.067029e+03
  4.219960e+00    7.697423e+03
  4.272964e+00    7.388221e+03
  4.325968e+00    6.878010e+03
  4.378972e+00    7.410422e+03
  4.431976e+00    9.483562e+03
  4.484980e+00    1.051451e+04
  4.537984e+00    8.313439e+03
  4.590988e+00    6.262096e+03
  4.643992e+00    5.522315e+03
  4.696997e+00    5.328569e+03
  4.750001e+00    5.280347e+03
  4.803005e+00    5.327414e+03
  4.856009e+00    5.539910e+03
  4.909013e+00    6.066356e+03
  4.962017e+00    6.763230e+03
  5.015021e+00    6.604085e+03
  5.068025e+00    5.898875e+03
  5.121029e+00    5.569590e+03
  5.174033e+00    5.373678e+03
  5.227038e+00    5.039660e+03
  5.280042e+00    4.691634e+03
  5.333046e+00    4.445618e+03
  5.386050e+00    4.306445e+03
  5.439054e+00    4.304808e+03
  5.492058e+00    4.269797e+03
  5.545062e+00    3.985644e+03
  5.598066e+00    3.780384e+03
  5.651070e+00    3.738356e+03
  5.704074e+00    3.818319e+03
  5.757079e+00    4.125218e+03
  5.810083e+00    4.697717e+03
  5.863087e+00    4.779833e+03
  5.916091e+00    4.331594e+03
  5.969095e+00    4.134083e+03
  6.022099e+00    4.140870e+03
  6.075103e+00    4.221678e+03
  6.128107e+00    4.111979e+03
  6.181111e+00    3.880970e+03
  6.234115e+00    3.838969e+03
  6.287120e+00    3.900464e+03
  6.340124e+00    3.887115e+03
  6.393128e+00    3.810643e+03
  6.446132e+00    3.714054e+03
  6.499136e+00    3.661687e+03
  6.552140e+00    3.623059e+03
  6.605144e+00    3.621502e+03
  6.658148e+00    3.626094e+03
  6.711152e+00    3.561775e+03
  6.764156e+00    3.473723e+03
  6.817161e+00    3.386163e+03
  6.870165e+00    3.300598e+03
  6.923169e+00    3.249180e+03
  6.976173e+00    3.296521e+03
  7.029177e+00    3.367275e+03
  7.082181e+00    3.388776e+03
  7.135185e+00    3.322193e+03
  7.188189e+00    3.257274e+03
  7.241193e+00    3.249224e+03
  7.294197e+00    3.284424e+03
  7.347202e+00    3.284333e+03
  7.400206e+00    3.269642e+03
  7.453210e+00    3.266963e+03
  7.506214e+00    3.297491e+03
  7.559218e+00    3.347255e+03
  7.612222e+00    3.480738e+03
  7.665226e+00    3.705735e+03
  7.718230e+00    3.883766e+03
  7.771234e+00    3.827614e+03
  7.824239e+00    3.645073e+03
  7.877243e+00    3.496127e+03
  7.930247e+00    3.302126e+03
  7.983251e+00    3.165956e+03
  8.036255e+00    3.111148e+03
  8.089259e+00    3.092579e+03
  8.142263e+00    3.084919e+03
  8.195267e+00    3.077417e+03
  8.248271e+00    3.063510e+03
  8.301275e+00    3.042659e+03
  8.354280e+00    3.027654e+03
  8.407284e+00    3.019414e+03
  8.460288e+00    3.014974e+03
  8.513292e+00    3.016411e+03
  8.566296e+00    3.056485e+03
  8.619300e+00    3.078423e+03
  8.672304e+00    3.046369e+03
  8.725308e+00    3.003641e+03
  8.778312e+00    2.974888e+03
  8.831316e+00    2.963068e+03
  8.884321e+00    2.965681e+03
  8.937325e+00    2.962896e+03
  8.990329e+00    2.927098e+03
  9.043333e+00    2.877839e+03
  9.096337e+00    2.858501e+03
  9.149341e+00    2.850005e+03
  9.202345e+00    2.797055e+03
  9.255349e+00    2.740977e+03
  9.308353e+00    2.706091e+03
  9.361357e+00    2.689257e+03
  9.414362e+00    2.675339e+03
  9.467366e+00    2.677197e+03
  9.520370e+00    2.655785e+03
  9.573374e+00    2.627146e+03
  9.626378e+00    2.613140e+03
  9.679382e+00    2.607960e+03
  9.732386e+00    2.609289e+03
  9.785390e+00    2.604551e+03
  9.838394e+00    2.606757e+03
  9.891398e+00    2.614205e+03
  9.944403e+00    2.618772e+03
  9.997407e+00    2.603801e+03
  1.005041e+01    2.571069e+03
  1.010341e+01    2.533236e+03
  1.015642e+01    2.510810e+03
  1.020942e+01    2.503148e+03
  1.026243e+01    2.501919e+03
  1.031543e+01    2.526168e+03
  1.036844e+01    2.578259e+03
  1.042144e+01    2.598625e+03
  1.047444e+01    2.590516e+03
  1.052745e+01    2.571634e+03
  1.058045e+01    2.554192e+03
  1.063346e+01    2.520910e+03
  1.068646e+01    2.499355e+03
  1.073946e+01    2.477451e+03
  1.079247e+01    2.464619e+03
  1.084547e+01    2.450399e+03
  1.089848e+01    2.452031e+03
  1.095148e+01    2.450629e+03
  1.100448e+01    2.442364e+03
  1.105749e+01    2.435612e+03
  1.111049e+01    2.439143e+03
  1.116350e+01    2.424652e+03
  1.121650e+01    2.413285e+03
  1.126951e+01    2.400521e+03
  1.132251e+01    2.390252e+03
  1.137551e+01    2.382904e+03
  1.142852e+01    2.382980e+03
  1.148152e+01    2.385397e+03
  1.153453e+01    2.381058e+03
  1.158753e+01    2.378859e+03
  1.164053e+01    2.373081e+03
  1.169354e+01    2.372957e+03
  1.174654e+01    2.394436e+03
  1.179955e+01    2.379818e+03
  1.185255e+01    2.371805e+03
  1.190555e+01    2.351344e+03
  1.195856e+01    2.340157e+03
  1.201156e+01    2.328256e+03
  1.206457e+01    2.320272e+03
  1.211757e+01    2.323247e+03
  1.217057e+01    2.324187e+03
  1.222358e+01    2.322354e+03
  1.227658e+01    2.320419e+03
  1.232959e+01    2.322411e+03
  1.238259e+01    2.315550e+03
  1.243560e+01    2.320166e+03
  1.248860e+01    2.318294e+03
  1.254160e+01    2.326629e+03
  1.259461e+01    2.323003e+03
  1.264761e+01    2.314059e+03
  1.270062e+01    2.298983e+03
  1.275362e+01    2.286780e+03
  1.280662e+01    2.276230e+03
  1.285963e+01    2.267573e+03
  1.291263e+01    2.259183e+03
  1.296564e+01    2.248054e+03
  1.301864e+01    2.242986e+03
  1.307164e+01    2.240167e+03
  1.312465e+01    2.232743e+03
  1.317765e+01    2.227657e+03
  1.323066e+01    2.207865e+03
  1.328366e+01    2.197090e+03
  1.333667e+01    2.189293e+03
  1.338967e+01    2.185497e+03
  1.344267e+01    2.201817e+03
  1.349568e+01    2.197537e+03
  1.354868e+01    2.188839e+03
  1.360169e+01    2.174753e+03
  1.365469e+01    2.161598e+03
  1.370769e+01    2.150814e+03
  1.376070e+01    2.138238e+03
  1.381370e+01    2.131990e+03
  1.386671e+01    2.125170e+03
  1.391971e+01    2.114865e+03
  1.397271e+01    2.112893e+03
  1.402572e+01    2.109356e+03
  1.407872e+01    2.102119e+03
  1.413173e+01    2.096595e+03
  1.418473e+01    2.091678e+03
  1.423773e+01    2.088412e+03
  1.429074e+01    2.079357e+03
  1.434374e+01    2.082156e+03
  1.439675e+01    2.076011e+03
  1.444975e+01    2.073767e+03
  1.450276e+01    2.069884e+03
  1.455576e+01    2.061605e+03
  1.460876e+01    2.056814e+03
  1.466177e+01    2.053253e+03
  1.471477e+01    2.050962e+03
  1.476778e+01    2.053289e+03
  1.482078e+01    2.051788e+03
  1.487378e+01    2.047615e+03
  1.492679e+01    2.042184e+03
  1.497979e+01    2.040666e+03
  1.503280e+01    2.037272e+03
  1.508580e+01    2.035272e+03
  1.513880e+01    2.033857e+03
  1.519181e+01    2.040800e+03
  1.524481e+01    2.063833e+03
  1.529782e+01    2.045900e+03
  1.535082e+01    2.034399e+03
  1.540382e+01    2.027516e+03
  1.545683e+01    2.018439e+03
  1.550983e+01    2.024679e+03
  1.556284e+01    2.019478e+03
  1.561584e+01    2.015448e+03
  1.566885e+01    2.009935e+03
  1.572185e+01    2.007851e+03
  1.577485e+01    2.004829e+03
  1.582786e+01    2.000684e+03
  1.588086e+01    1.996826e+03
  1.593387e+01    1.997008e+03
  1.598687e+01    1.992493e+03
  1.603987e+01    1.987535e+03
  1.609288e+01    1.978313e+03
  1.614588e+01    1.971312e+03
  1.619889e+01    1.972542e+03
  1.625189e+01    1.975859e+03
  1.630489e+01    1.972127e+03
  1.635790e+01    1.969465e+03
  1.641090e+01    1.964211e+03
  1.646391e+01    1.957780e+03
  1.651691e+01    1.956808e+03
  1.656992e+01    1.949932e+03
  1.662292e+01    1.945765e+03
  1.667592e+01    1.945672e+03
  1.672893e+01    1.941741e+03
  1.678193e+01    1.941143e+03
  1.683494e+01    1.935498e+03
  1.688794e+01    1.934530e+03
  1.694094e+01    1.932194e+03
  1.699395e+01    1.928493e+03
  1.704695e+01    1.924754e+03
  1.709996e+01    1.919711e+03
  1.715296e+01    1.916437e+03
  1.720596e+01    1.913973e+03
  1.725897e+01    1.909895e+03
  1.731197e+01    1.906876e+03
  1.736498e+01    1.902820e+03
  1.741798e+01    1.901644e+03
  1.747098e+01    1.901619e+03
  1.752399e+01    1.897345e+03
  1.757699e+01    1.891420e+03
  1.763000e+01    1.886931e+03
  1.768300e+01    1.884383e+03
  1.773601e+01    1.879470e+03
  1.778901e+01    1.874735e+03
  1.784201e+01    1.869098e+03
  1.789502e+01    1.869613e+03
  1.794802e+01    1.861163e+03
  1.800103e+01    1.861946e+03
  1.805403e+01    1.856467e+03
  1.810703e+01    1.851160e+03
  1.816004e+01    1.846195e+03
  1.821304e+01    1.843374e+03
  1.826605e+01    1.846769e+03
  1.831905e+01    1.838715e+03
  1.837205e+01    1.835238e+03
  1.842506e+01    1.830903e+03
  1.847806e+01    1.829294e+03
  1.853107e+01    1.828712e+03
  1.858407e+01    1.826882e+03
  1.863708e+01    1.826374e+03
  1.869008e+01    1.841546e+03
  1.874308e+01    1.829874e+03
  1.879609e+01    1.825092e+03
  1.884909e+01    1.820546e+03
  1.890210e+01    1.816609e+03
  1.895510e+01    1.809705e+03
  1.900810e+01    1.807456e+03
  1.906111e+01    1.800635e+03
  1.911411e+01    1.792424e+03
  1.916712e+01    1.789230e+03
  1.922012e+01    1.786339e+03
  1.927312e+01    1.778444e+03
  1.932613e+01    1.775509e+03
  1.937913e+01    1.769619e+03
  1.943214e+01    1.764396e+03
  1.948514e+01    1.761400e+03
  1.953814e+01    1.756427e+03
  1.959115e+01    1.752976e+03
  1.964415e+01    1.745529e+03
  1.969716e+01    1.742008e+03
  1.975016e+01    1.738344e+03
  1.980317e+01    1.733214e+03
  1.985617e+01    1.728684e+03
  1.990917e+01    1.722113e+03
  1.996218e+01    1.718452e+03
  2.001518e+01    1.713699e+03
  2.006819e+01    1.706922e+03
  2.012119e+01    1.701615e+03
  2.017419e+01    1.696135e+03
  2.022720e+01    1.690705e+03
  2.028020e+01    1.684250e+03
  2.033321e+01    1.678162e+03
  2.038621e+01    1.672842e+03
  2.043921e+01    1.669037e+03
  2.049222e+01    1.663533e+03
  2.054522e+01    1.657620e+03
  2.059823e+01    1.653694e+03
  2.065123e+01    1.647364e+03
  2.070424e+01    1.645535e+03
  2.075724e+01    1.644613e+03
  2.081024e+01    1.651724e+03
  2.086325e+01    1.641656e+03
  2.091625e+01    1.623646e+03
  2.096926e+01    1.610285e+03
  2.102226e+01    1.600400e+03
  2.107526e+01    1.590591e+03
  2.112827e+01    1.578887e+03
  2.118127e+01    1.570847e+03
  2.123428e+01    1.562193e+03
  2.128728e+01    1.553422e+03
  2.134028e+01    1.545792e+03
  2.139329e+01    1.533877e+03
  2.144629e+01    1.525535e+03
  2.149930e+01    1.517841e+03
  2.155230e+01    1.509272e+03
  2.160530e+01    1.501093e+03
  2.165831e+01    1.491045e+03
  2.171131e+01    1.484068e+03
  2.176432e+01    1.479078e+03
  2.181732e+01    1.470543e+03
  2.187033e+01    1.461295e+03
  2.192333e+01    1.454193e+03
  2.197633e+01    1.445354e+03
  2.202934e+01    1.437809e+03
  2.208234e+01    1.427778e+03
  2.213535e+01    1.418695e+03
  2.218835e+01    1.409080e+03
  2.224135e+01    1.403385e+03
  2.229436e+01    1.394182e+03
  2.234736e+01    1.387602e+03
  2.240037e+01    1.377777e+03
  2.245337e+01    1.370825e+03
  2.250637e+01    1.363314e+03
  2.255938e+01    1.356528e+03
  2.261238e+01    1.358814e+03
  2.266539e+01    1.359864e+03
  2.271839e+01    1.360101e+03
  2.277140e+01    1.360184e+03
  2.282440e+01    1.360869e+03
  2.287740e+01    1.356185e+03
  2.293041e+01    1.357890e+03
  2.298341e+01    1.355044e+03
  2.303642e+01    1.354733e+03
  2.308942e+01    1.352689e+03
  2.314242e+01    1.351021e+03
  2.319543e+01    1.346809e+03
  2.324843e+01    1.342651e+03
  2.330144e+01    1.341387e+03
  2.335444e+01    1.340072e+03
  2.340744e+01    1.336619e+03
  2.346045e+01    1.338082e+03
  2.351345e+01    1.333518e+03
  2.356646e+01    1.327809e+03
  2.361946e+01    1.329456e+03
  2.367246e+01    1.327552e+03
  2.372547e+01    1.323453e+03
  2.377847e+01    1.320574e+03
  2.383148e+01    1.312830e+03
  2.388448e+01    1.309584e+03
  2.393749e+01    1.307300e+03
  2.399049e+01    1.304151e+03
  2.404349e+01    1.302682e+03
  2.409650e+01    1.296355e+03
  2.414950e+01    1.289872e+03
  2.420251e+01    1.284395e+03
  2.425551e+01    1.277729e+03
  2.430851e+01    1.272927e+03
  2.436152e+01    1.269059e+03
  2.441452e+01    1.261356e+03
  2.446753e+01    1.255728e+03
  2.452053e+01    1.247280e+03
  2.457353e+01    1.243063e+03
  2.462654e+01    1.239445e+03
  2.467954e+01    1.232135e+03
  2.473255e+01    1.222913e+03
  2.478555e+01    1.213706e+03
  2.483855e+01    1.202721e+03
  2.489156e+01    1.197874e+03
  2.494456e+01    1.188781e+03
  2.499757e+01    1.180207e+03
  2.505057e+01    1.172315e+03
  2.510358e+01    1.161644e+03
  2.515658e+01    1.157183e+03
  2.520958e+01    1.153953e+03
  2.526259e+01    1.147236e+03
  2.531559e+01    1.142638e+03
  2.536860e+01    1.139452e+03
  2.542160e+01    1.131376e+03
  2.547460e+01    1.124591e+03
  2.552761e+01    1.116050e+03
  2.558061e+01    1.113426e+03
  2.563362e+01    1.113273e+03
  2.568662e+01    1.099635e+03
  2.573962e+01    1.092727e+03
  2.579263e+01    1.086765e+03
  2.584563e+01    1.079107e+03
  2.589864e+01    1.074344e+03
  2.595164e+01    1.072420e+03
  2.600465e+01    1.073252e+03
  2.605765e+01    1.069679e+03
  2.611065e+01    1.067085e+03
  2.616366e+01    1.064267e+03
  2.621666e+01    1.057442e+03
  2.626967e+01    1.048078e+03
  2.632267e+01    1.042144e+03
  2.637567e+01    1.037927e+03
  2.642868e+01    1.014958e+03
  2.648168e+01    9.936655e+02
