# == pyFAI calibration ==
# Distance Sample to Detector: 0.2945755399789714 m
# PONI: 2.880e-01, 2.450e-01 m
# Rotations: -0.007291 -0.010887 -0.000000 rad
# 
# == Fit2d calibration ==
# Distance Sample-beamCenter: 294.601 mm
# Center: x=1437.174, y=1655.617 pix
# Tilt: 0.751 deg  TiltPlanRot: -56.193 deg
# 
# Detector Pilatus CdTe 2M	 PixelSize= 1.720e-04, 1.720e-04 m
#    Detector has a mask: True 
#    Detector has a dark current: False 
#    detector has a flat field: False 
# 
# Wavelength: 2.0732883349524408e-11 m
# Mask applied: from detector
# Dark current applied: False
# Flat field applied: False
# Polarization factor: 0.9
# Normalization factor: 1.0
# --> /gpfs/current/raw/FMue_2/FMue_2_20231024_120911_00115.dat
#        q_A^-1             I 
  3.263564e-02             nan
  8.563974e-02             nan
  1.386438e-01             nan
  1.916479e-01             nan
  2.446520e-01    3.807001e+04
  2.976561e-01    2.967214e+04
  3.506602e-01    1.584461e+04
  4.036643e-01    1.110320e+04
  4.566684e-01    9.496769e+03
  5.096725e-01    9.114302e+03
  5.626766e-01    8.829427e+03
  6.156807e-01    8.474423e+03
  6.686848e-01    8.307133e+03
  7.216890e-01    8.335565e+03
  7.746931e-01    8.326194e+03
  8.276972e-01    8.394432e+03
  8.807013e-01    8.455993e+03
  9.337054e-01    8.601561e+03
  9.867095e-01    8.744727e+03
  1.039714e+00    9.000323e+03
  1.092718e+00    9.324729e+03
  1.145722e+00    9.805374e+03
  1.198726e+00    1.038291e+04
  1.251730e+00    1.107918e+04
  1.304734e+00    1.198029e+04
  1.357738e+00    1.283760e+04
  1.410742e+00    1.352349e+04
  1.463746e+00    1.386809e+04
  1.516750e+00    1.381748e+04
  1.569755e+00    1.333825e+04
  1.622759e+00    1.269514e+04
  1.675763e+00    1.184519e+04
  1.728767e+00    1.095348e+04
  1.781771e+00    1.016047e+04
  1.834775e+00    9.507828e+03
  1.887779e+00    8.952291e+03
  1.940783e+00    8.596665e+03
  1.993787e+00    8.302110e+03
  2.046791e+00    8.129144e+03
  2.099796e+00    8.085131e+03
  2.152800e+00    8.102195e+03
  2.205804e+00    8.178203e+03
  2.258808e+00    8.247573e+03
  2.311812e+00    8.276984e+03
  2.364816e+00    8.347393e+03
  2.417820e+00    8.662755e+03
  2.470824e+00    9.393971e+03
  2.523828e+00    1.097162e+04
  2.576832e+00    1.292207e+04
  2.629837e+00    1.101819e+04
  2.682841e+00    8.463785e+03
  2.735845e+00    7.736973e+03
  2.788849e+00    7.108024e+03
  2.841853e+00    6.791355e+03
  2.894857e+00    7.750725e+03
  2.947861e+00    1.121616e+04
  3.000865e+00    1.296306e+04
  3.053869e+00    9.546636e+03
  3.106874e+00    8.023491e+03
  3.159878e+00    8.591962e+03
  3.212882e+00    7.864097e+03
  3.265886e+00    6.010450e+03
  3.318890e+00    5.087688e+03
  3.371894e+00    4.838789e+03
  3.424898e+00    4.747562e+03
  3.477902e+00    4.705667e+03
  3.530906e+00    4.679081e+03
  3.583910e+00    4.663524e+03
  3.636915e+00    4.687895e+03
  3.689919e+00    4.734249e+03
  3.742923e+00    4.812135e+03
  3.795927e+00    4.924927e+03
  3.848931e+00    5.083396e+03
  3.901935e+00    5.267440e+03
  3.954939e+00    5.483691e+03
  4.007943e+00    5.834034e+03
  4.060947e+00    6.329487e+03
  4.113951e+00    7.130669e+03
  4.166956e+00    8.875791e+03
  4.219960e+00    1.103722e+04
  4.272964e+00    9.555810e+03
  4.325968e+00    7.290624e+03
  4.378972e+00    7.324312e+03
  4.431976e+00    9.342310e+03
  4.484980e+00    1.068343e+04
  4.537984e+00    8.646208e+03
  4.590988e+00    6.468213e+03
  4.643992e+00    5.658603e+03
  4.696997e+00    5.447773e+03
  4.750001e+00    5.404676e+03
  4.803005e+00    5.472167e+03
  4.856009e+00    5.755830e+03
  4.909013e+00    6.346870e+03
  4.962017e+00    6.648268e+03
  5.015021e+00    6.083974e+03
  5.068025e+00    5.687506e+03
  5.121029e+00    5.838537e+03
  5.174033e+00    5.976990e+03
  5.227038e+00    5.379344e+03
  5.280042e+00    4.712528e+03
  5.333046e+00    4.376385e+03
  5.386050e+00    4.206196e+03
  5.439054e+00    4.194922e+03
  5.492058e+00    4.178399e+03
  5.545062e+00    3.892240e+03
  5.598066e+00    3.643025e+03
  5.651070e+00    3.544722e+03
  5.704074e+00    3.511345e+03
  5.757079e+00    3.516170e+03
  5.810083e+00    3.555764e+03
  5.863087e+00    3.650828e+03
  5.916091e+00    3.856309e+03
  5.969095e+00    4.072155e+03
  6.022099e+00    4.045995e+03
  6.075103e+00    3.916718e+03
  6.128107e+00    3.827359e+03
  6.181111e+00    3.795405e+03
  6.234115e+00    3.854748e+03
  6.287120e+00    3.987365e+03
  6.340124e+00    4.036583e+03
  6.393128e+00    4.044500e+03
  6.446132e+00    4.052949e+03
  6.499136e+00    4.105364e+03
  6.552140e+00    4.043966e+03
  6.605144e+00    4.050515e+03
  6.658148e+00    4.177567e+03
  6.711152e+00    4.035713e+03
  6.764156e+00    3.708119e+03
  6.817161e+00    3.493917e+03
  6.870165e+00    3.367959e+03
  6.923169e+00    3.291433e+03
  6.976173e+00    3.307219e+03
  7.029177e+00    3.365912e+03
  7.082181e+00    3.415909e+03
  7.135185e+00    3.401184e+03
  7.188189e+00    3.395736e+03
  7.241193e+00    3.488826e+03
  7.294197e+00    3.652147e+03
  7.347202e+00    3.604848e+03
  7.400206e+00    3.411583e+03
  7.453210e+00    3.293206e+03
  7.506214e+00    3.266139e+03
  7.559218e+00    3.263681e+03
  7.612222e+00    3.305435e+03
  7.665226e+00    3.453894e+03
  7.718230e+00    3.707121e+03
  7.771234e+00    3.740032e+03
  7.824239e+00    3.470118e+03
  7.877243e+00    3.226621e+03
  7.930247e+00    3.099129e+03
  7.983251e+00    3.052288e+03
  8.036255e+00    3.044212e+03
  8.089259e+00    3.044621e+03
  8.142263e+00    3.057070e+03
  8.195267e+00    3.065607e+03
  8.248271e+00    3.069146e+03
  8.301275e+00    3.065603e+03
  8.354280e+00    3.067514e+03
  8.407284e+00    3.084495e+03
  8.460288e+00    3.083673e+03
  8.513292e+00    3.042639e+03
  8.566296e+00    3.018010e+03
  8.619300e+00    3.006013e+03
  8.672304e+00    3.014898e+03
  8.725308e+00    3.045151e+03
  8.778312e+00    3.073536e+03
  8.831316e+00    3.101444e+03
  8.884321e+00    3.107190e+03
  8.937325e+00    3.095144e+03
  8.990329e+00    3.022980e+03
  9.043333e+00    2.902772e+03
  9.096337e+00    2.813330e+03
  9.149341e+00    2.769832e+03
  9.202345e+00    2.747277e+03
  9.255349e+00    2.741950e+03
  9.308353e+00    2.741218e+03
  9.361357e+00    2.754182e+03
  9.414362e+00    2.761496e+03
  9.467366e+00    2.762820e+03
  9.520370e+00    2.729645e+03
  9.573374e+00    2.685887e+03
  9.626378e+00    2.665366e+03
  9.679382e+00    2.661958e+03
  9.732386e+00    2.668586e+03
  9.785390e+00    2.671648e+03
  9.838394e+00    2.671239e+03
  9.891398e+00    2.665293e+03
  9.944403e+00    2.647265e+03
  9.997407e+00    2.618246e+03
  1.005041e+01    2.589116e+03
  1.010341e+01    2.545331e+03
  1.015642e+01    2.519092e+03
  1.020942e+01    2.507454e+03
  1.026243e+01    2.500029e+03
  1.031543e+01    2.511262e+03
  1.036844e+01    2.529999e+03
  1.042144e+01    2.528795e+03
  1.047444e+01    2.531060e+03
  1.052745e+01    2.527544e+03
  1.058045e+01    2.534164e+03
  1.063346e+01    2.534978e+03
  1.068646e+01    2.531133e+03
  1.073946e+01    2.513877e+03
  1.079247e+01    2.497892e+03
  1.084547e+01    2.478897e+03
  1.089848e+01    2.474993e+03
  1.095148e+01    2.475575e+03
  1.100448e+01    2.471542e+03
  1.105749e+01    2.468800e+03
  1.111049e+01    2.475521e+03
  1.116350e+01    2.471190e+03
  1.121650e+01    2.457967e+03
  1.126951e+01    2.436655e+03
  1.132251e+01    2.422020e+03
  1.137551e+01    2.413801e+03
  1.142852e+01    2.407254e+03
  1.148152e+01    2.392654e+03
  1.153453e+01    2.378572e+03
  1.158753e+01    2.370617e+03
  1.164053e+01    2.363773e+03
  1.169354e+01    2.365334e+03
  1.174654e+01    2.396285e+03
  1.179955e+01    2.393879e+03
  1.185255e+01    2.391934e+03
  1.190555e+01    2.379646e+03
  1.195856e+01    2.365472e+03
  1.201156e+01    2.355015e+03
  1.206457e+01    2.346245e+03
  1.211757e+01    2.353184e+03
  1.217057e+01    2.357618e+03
  1.222358e+01    2.355569e+03
  1.227658e+01    2.356228e+03
  1.232959e+01    2.354178e+03
  1.238259e+01    2.343021e+03
  1.243560e+01    2.340693e+03
  1.248860e+01    2.337452e+03
  1.254160e+01    2.338746e+03
  1.259461e+01    2.337129e+03
  1.264761e+01    2.332764e+03
  1.270062e+01    2.320182e+03
  1.275362e+01    2.309942e+03
  1.280662e+01    2.302972e+03
  1.285963e+01    2.295326e+03
  1.291263e+01    2.285963e+03
  1.296564e+01    2.274607e+03
  1.301864e+01    2.263279e+03
  1.307164e+01    2.254113e+03
  1.312465e+01    2.242426e+03
  1.317765e+01    2.235484e+03
  1.323066e+01    2.216377e+03
  1.328366e+01    2.210003e+03
  1.333667e+01    2.206152e+03
  1.338967e+01    2.201250e+03
  1.344267e+01    2.214362e+03
  1.349568e+01    2.209581e+03
  1.354868e+01    2.205238e+03
  1.360169e+01    2.194523e+03
  1.365469e+01    2.181188e+03
  1.370769e+01    2.173584e+03
  1.376070e+01    2.159955e+03
  1.381370e+01    2.151332e+03
  1.386671e+01    2.142443e+03
  1.391971e+01    2.133702e+03
  1.397271e+01    2.131223e+03
  1.402572e+01    2.127913e+03
  1.407872e+01    2.120568e+03
  1.413173e+01    2.114363e+03
  1.418473e+01    2.110454e+03
  1.423773e+01    2.105423e+03
  1.429074e+01    2.095923e+03
  1.434374e+01    2.095888e+03
  1.439675e+01    2.087813e+03
  1.444975e+01    2.085784e+03
  1.450276e+01    2.081484e+03
  1.455576e+01    2.078456e+03
  1.460876e+01    2.078562e+03
  1.466177e+01    2.073450e+03
  1.471477e+01    2.074728e+03
  1.476778e+01    2.076915e+03
  1.482078e+01    2.075484e+03
  1.487378e+01    2.069717e+03
  1.492679e+01    2.064447e+03
  1.497979e+01    2.060198e+03
  1.503280e+01    2.057862e+03
  1.508580e+01    2.055639e+03
  1.513880e+01    2.054112e+03
  1.519181e+01    2.060319e+03
  1.524481e+01    2.081242e+03
  1.529782e+01    2.062943e+03
  1.535082e+01    2.054603e+03
  1.540382e+01    2.046597e+03
  1.545683e+01    2.037849e+03
  1.550983e+01    2.041757e+03
  1.556284e+01    2.038344e+03
  1.561584e+01    2.031721e+03
  1.566885e+01    2.026914e+03
  1.572185e+01    2.024758e+03
  1.577485e+01    2.021826e+03
  1.582786e+01    2.017226e+03
  1.588086e+01    2.016712e+03
  1.593387e+01    2.013649e+03
  1.598687e+01    2.009654e+03
  1.603987e+01    2.000591e+03
  1.609288e+01    1.994110e+03
  1.614588e+01    1.987347e+03
  1.619889e+01    1.990389e+03
  1.625189e+01    1.992963e+03
  1.630489e+01    1.989445e+03
  1.635790e+01    1.986915e+03
  1.641090e+01    1.982612e+03
  1.646391e+01    1.976446e+03
  1.651691e+01    1.973533e+03
  1.656992e+01    1.970044e+03
  1.662292e+01    1.962935e+03
  1.667592e+01    1.964646e+03
  1.672893e+01    1.959891e+03
  1.678193e+01    1.961169e+03
  1.683494e+01    1.957288e+03
  1.688794e+01    1.956555e+03
  1.694094e+01    1.954458e+03
  1.699395e+01    1.951003e+03
  1.704695e+01    1.946818e+03
  1.709996e+01    1.942981e+03
  1.715296e+01    1.939466e+03
  1.720596e+01    1.936885e+03
  1.725897e+01    1.931186e+03
  1.731197e+01    1.930269e+03
  1.736498e+01    1.923575e+03
  1.741798e+01    1.922005e+03
  1.747098e+01    1.921024e+03
  1.752399e+01    1.919087e+03
  1.757699e+01    1.913186e+03
  1.763000e+01    1.907899e+03
  1.768300e+01    1.903679e+03
  1.773601e+01    1.900958e+03
  1.778901e+01    1.895867e+03
  1.784201e+01    1.888571e+03
  1.789502e+01    1.888895e+03
  1.794802e+01    1.883152e+03
  1.800103e+01    1.882313e+03
  1.805403e+01    1.877023e+03
  1.810703e+01    1.871307e+03
  1.816004e+01    1.868842e+03
  1.821304e+01    1.867339e+03
  1.826605e+01    1.870937e+03
  1.831905e+01    1.860141e+03
  1.837205e+01    1.858036e+03
  1.842506e+01    1.854994e+03
  1.847806e+01    1.852047e+03
  1.853107e+01    1.850753e+03
  1.858407e+01    1.850430e+03
  1.863708e+01    1.849252e+03
  1.869008e+01    1.863180e+03
  1.874308e+01    1.852283e+03
  1.879609e+01    1.848663e+03
  1.884909e+01    1.845122e+03
  1.890210e+01    1.842173e+03
  1.895510e+01    1.834297e+03
  1.900810e+01    1.833001e+03
  1.906111e+01    1.826325e+03
  1.911411e+01    1.820782e+03
  1.916712e+01    1.815130e+03
  1.922012e+01    1.812719e+03
  1.927312e+01    1.806536e+03
  1.932613e+01    1.802419e+03
  1.937913e+01    1.797554e+03
  1.943214e+01    1.793617e+03
  1.948514e+01    1.789467e+03
  1.953814e+01    1.785135e+03
  1.959115e+01    1.780381e+03
  1.964415e+01    1.774797e+03
  1.969716e+01    1.771630e+03
  1.975016e+01    1.767259e+03
  1.980317e+01    1.762630e+03
  1.985617e+01    1.758987e+03
  1.990917e+01    1.751496e+03
  1.996218e+01    1.747747e+03
  2.001518e+01    1.743702e+03
  2.006819e+01    1.736429e+03
  2.012119e+01    1.729201e+03
  2.017419e+01    1.726796e+03
  2.022720e+01    1.720281e+03
  2.028020e+01    1.712604e+03
  2.033321e+01    1.707310e+03
  2.038621e+01    1.699966e+03
  2.043921e+01    1.696604e+03
  2.049222e+01    1.692368e+03
  2.054522e+01    1.686936e+03
  2.059823e+01    1.683577e+03
  2.065123e+01    1.677934e+03
  2.070424e+01    1.673274e+03
  2.075724e+01    1.671766e+03
  2.081024e+01    1.677862e+03
  2.086325e+01    1.669789e+03
  2.091625e+01    1.653858e+03
  2.096926e+01    1.641025e+03
  2.102226e+01    1.629184e+03
  2.107526e+01    1.620911e+03
  2.112827e+01    1.609753e+03
  2.118127e+01    1.601689e+03
  2.123428e+01    1.591262e+03
  2.128728e+01    1.583931e+03
  2.134028e+01    1.574652e+03
  2.139329e+01    1.564730e+03
  2.144629e+01    1.554728e+03
  2.149930e+01    1.546523e+03
  2.155230e+01    1.538829e+03
  2.160530e+01    1.531193e+03
  2.165831e+01    1.519087e+03
  2.171131e+01    1.513734e+03
  2.176432e+01    1.508668e+03
  2.181732e+01    1.498356e+03
  2.187033e+01    1.488508e+03
  2.192333e+01    1.483374e+03
  2.197633e+01    1.475031e+03
  2.202934e+01    1.464772e+03
  2.208234e+01    1.455165e+03
  2.213535e+01    1.446287e+03
  2.218835e+01    1.438013e+03
  2.224135e+01    1.430218e+03
  2.229436e+01    1.421151e+03
  2.234736e+01    1.415519e+03
  2.240037e+01    1.405181e+03
  2.245337e+01    1.398048e+03
  2.250637e+01    1.390574e+03
  2.255938e+01    1.381458e+03
  2.261238e+01    1.384143e+03
  2.266539e+01    1.383763e+03
  2.271839e+01    1.383420e+03
  2.277140e+01    1.383177e+03
  2.282440e+01    1.383207e+03
  2.287740e+01    1.379873e+03
  2.293041e+01    1.380395e+03
  2.298341e+01    1.378163e+03
  2.303642e+01    1.378420e+03
  2.308942e+01    1.376341e+03
  2.314242e+01    1.373989e+03
  2.319543e+01    1.369718e+03
  2.324843e+01    1.366128e+03
  2.330144e+01    1.364968e+03
  2.335444e+01    1.362988e+03
  2.340744e+01    1.361817e+03
  2.346045e+01    1.359386e+03
  2.351345e+01    1.356636e+03
  2.356646e+01    1.351530e+03
  2.361946e+01    1.350843e+03
  2.367246e+01    1.351487e+03
  2.372547e+01    1.347299e+03
  2.377847e+01    1.343531e+03
  2.383148e+01    1.338752e+03
  2.388448e+01    1.333920e+03
  2.393749e+01    1.331683e+03
  2.399049e+01    1.329181e+03
  2.404349e+01    1.327910e+03
  2.409650e+01    1.324563e+03
  2.414950e+01    1.317873e+03
  2.420251e+01    1.313266e+03
  2.425551e+01    1.305169e+03
  2.430851e+01    1.300316e+03
  2.436152e+01    1.296302e+03
  2.441452e+01    1.288263e+03
  2.446753e+01    1.283510e+03
  2.452053e+01    1.276457e+03
  2.457353e+01    1.273950e+03
  2.462654e+01    1.272120e+03
  2.467954e+01    1.260879e+03
  2.473255e+01    1.253376e+03
  2.478555e+01    1.242648e+03
  2.483855e+01    1.232848e+03
  2.489156e+01    1.223936e+03
  2.494456e+01    1.215622e+03
  2.499757e+01    1.204900e+03
  2.505057e+01    1.196708e+03
  2.510358e+01    1.190081e+03
  2.515658e+01    1.183182e+03
  2.520958e+01    1.178587e+03
  2.526259e+01    1.171489e+03
  2.531559e+01    1.165311e+03
  2.536860e+01    1.161097e+03
  2.542160e+01    1.155357e+03
  2.547460e+01    1.147400e+03
  2.552761e+01    1.138026e+03
  2.558061e+01    1.133367e+03
  2.563362e+01    1.130674e+03
  2.568662e+01    1.118408e+03
  2.573962e+01    1.114648e+03
  2.579263e+01    1.103261e+03
  2.584563e+01    1.097096e+03
  2.589864e+01    1.092620e+03
  2.595164e+01    1.094246e+03
  2.600465e+01    1.091451e+03
  2.605765e+01    1.086112e+03
  2.611065e+01    1.085396e+03
  2.616366e+01    1.085554e+03
  2.621666e+01    1.071213e+03
  2.626967e+01    1.065017e+03
  2.632267e+01    1.060217e+03
  2.637567e+01    1.065063e+03
  2.642868e+01    1.033412e+03
  2.648168e+01    1.024607e+03
