# == pyFAI calibration ==
# Distance Sample to Detector: 0.2945755399789714 m
# PONI: 2.880e-01, 2.450e-01 m
# Rotations: -0.007291 -0.010887 -0.000000 rad
# 
# == Fit2d calibration ==
# Distance Sample-beamCenter: 294.601 mm
# Center: x=1437.174, y=1655.617 pix
# Tilt: 0.751 deg  TiltPlanRot: -56.193 deg
# 
# Detector Pilatus CdTe 2M	 PixelSize= 1.720e-04, 1.720e-04 m
#    Detector has a mask: True 
#    Detector has a dark current: False 
#    detector has a flat field: False 
# 
# Wavelength: 2.0732883349524408e-11 m
# Mask applied: from detector
# Dark current applied: False
# Flat field applied: False
# Polarization factor: 0.9
# Normalization factor: 1.0
# --> /gpfs/current/raw/FMue_2/FMue_2_20231024_120911_00244.dat
#        q_A^-1             I 
  3.263564e-02             nan
  8.563974e-02             nan
  1.386438e-01             nan
  1.916479e-01             nan
  2.446520e-01    3.867677e+04
  2.976561e-01    2.979196e+04
  3.506602e-01    1.587701e+04
  4.036643e-01    1.113217e+04
  4.566684e-01    9.488284e+03
  5.096725e-01    9.036479e+03
  5.626766e-01    8.714957e+03
  6.156807e-01    8.351802e+03
  6.686848e-01    8.184736e+03
  7.216890e-01    8.231480e+03
  7.746931e-01    8.219683e+03
  8.276972e-01    8.292854e+03
  8.807013e-01    8.356035e+03
  9.337054e-01    8.501028e+03
  9.867095e-01    8.653296e+03
  1.039714e+00    8.910907e+03
  1.092718e+00    9.233648e+03
  1.145722e+00    9.717411e+03
  1.198726e+00    1.029595e+04
  1.251730e+00    1.100004e+04
  1.304734e+00    1.188612e+04
  1.357738e+00    1.275086e+04
  1.410742e+00    1.343591e+04
  1.463746e+00    1.377950e+04
  1.516750e+00    1.372947e+04
  1.569755e+00    1.324488e+04
  1.622759e+00    1.258993e+04
  1.675763e+00    1.174287e+04
  1.728767e+00    1.084407e+04
  1.781771e+00    1.004865e+04
  1.834775e+00    9.397023e+03
  1.887779e+00    8.836123e+03
  1.940783e+00    8.476959e+03
  1.993787e+00    8.177378e+03
  2.046791e+00    7.997211e+03
  2.099796e+00    7.929496e+03
  2.152800e+00    7.938986e+03
  2.205804e+00    8.016832e+03
  2.258808e+00    8.074500e+03
  2.311812e+00    8.096949e+03
  2.364816e+00    8.178471e+03
  2.417820e+00    8.507242e+03
  2.470824e+00    9.205944e+03
  2.523828e+00    1.054531e+04
  2.576832e+00    1.182380e+04
  2.629837e+00    1.016388e+04
  2.682841e+00    8.237790e+03
  2.735845e+00    7.636901e+03
  2.788849e+00    7.027008e+03
  2.841853e+00    6.768505e+03
  2.894857e+00    7.654733e+03
  2.947861e+00    1.041083e+04
  3.000865e+00    1.209693e+04
  3.053869e+00    1.048158e+04
  3.106874e+00    9.115404e+03
  3.159878e+00    9.036289e+03
  3.212882e+00    7.985827e+03
  3.265886e+00    6.123340e+03
  3.318890e+00    5.271133e+03
  3.371894e+00    5.094911e+03
  3.424898e+00    5.137272e+03
  3.477902e+00    5.309647e+03
  3.530906e+00    5.260546e+03
  3.583910e+00    4.982482e+03
  3.636915e+00    4.818143e+03
  3.689919e+00    4.796235e+03
  3.742923e+00    4.836642e+03
  3.795927e+00    4.940409e+03
  3.848931e+00    5.069685e+03
  3.901935e+00    5.250013e+03
  3.954939e+00    5.478815e+03
  4.007943e+00    5.818946e+03
  4.060947e+00    6.292418e+03
  4.113951e+00    6.995777e+03
  4.166956e+00    8.368712e+03
  4.219960e+00    9.722982e+03
  4.272964e+00    8.435519e+03
  4.325968e+00    7.016372e+03
  4.378972e+00    7.344227e+03
  4.431976e+00    9.417129e+03
  4.484980e+00    1.047271e+04
  4.537984e+00    8.328742e+03
  4.590988e+00    6.322812e+03
  4.643992e+00    5.605636e+03
  4.696997e+00    5.430388e+03
  4.750001e+00    5.398690e+03
  4.803005e+00    5.473003e+03
  4.856009e+00    5.745970e+03
  4.909013e+00    6.281937e+03
  4.962017e+00    6.561764e+03
  5.015021e+00    6.129161e+03
  5.068025e+00    5.735293e+03
  5.121029e+00    5.741489e+03
  5.174033e+00    5.675020e+03
  5.227038e+00    5.147739e+03
  5.280042e+00    4.663518e+03
  5.333046e+00    4.384993e+03
  5.386050e+00    4.235994e+03
  5.439054e+00    4.235241e+03
  5.492058e+00    4.193914e+03
  5.545062e+00    3.901535e+03
  5.598066e+00    3.689679e+03
  5.651070e+00    3.619030e+03
  5.704074e+00    3.631713e+03
  5.757079e+00    3.746914e+03
  5.810083e+00    3.938433e+03
  5.863087e+00    4.006237e+03
  5.916091e+00    4.010972e+03
  5.969095e+00    4.063361e+03
  6.022099e+00    4.029964e+03
  6.075103e+00    3.983823e+03
  6.128107e+00    3.893123e+03
  6.181111e+00    3.814403e+03
  6.234115e+00    3.850012e+03
  6.287120e+00    3.954843e+03
  6.340124e+00    3.982252e+03
  6.393128e+00    3.958958e+03
  6.446132e+00    3.935978e+03
  6.499136e+00    3.931690e+03
  6.552140e+00    3.865344e+03
  6.605144e+00    3.885190e+03
  6.658148e+00    3.928871e+03
  6.711152e+00    3.774953e+03
  6.764156e+00    3.566531e+03
  6.817161e+00    3.426696e+03
  6.870165e+00    3.328083e+03
  6.923169e+00    3.269011e+03
  6.976173e+00    3.302047e+03
  7.029177e+00    3.366844e+03
  7.082181e+00    3.399937e+03
  7.135185e+00    3.368041e+03
  7.188189e+00    3.352695e+03
  7.241193e+00    3.411104e+03
  7.294197e+00    3.492359e+03
  7.347202e+00    3.434792e+03
  7.400206e+00    3.319820e+03
  7.453210e+00    3.267516e+03
  7.506214e+00    3.266418e+03
  7.559218e+00    3.290366e+03
  7.612222e+00    3.365336e+03
  7.665226e+00    3.533623e+03
  7.718230e+00    3.734042e+03
  7.771234e+00    3.703481e+03
  7.824239e+00    3.468233e+03
  7.877243e+00    3.278897e+03
  7.930247e+00    3.147870e+03
  7.983251e+00    3.081387e+03
  8.036255e+00    3.058580e+03
  8.089259e+00    3.055126e+03
  8.142263e+00    3.060410e+03
  8.195267e+00    3.064375e+03
  8.248271e+00    3.061284e+03
  8.301275e+00    3.050473e+03
  8.354280e+00    3.047173e+03
  8.407284e+00    3.050410e+03
  8.460288e+00    3.040854e+03
  8.513292e+00    3.019384e+03
  8.566296e+00    3.021668e+03
  8.619300e+00    3.023458e+03
  8.672304e+00    3.017265e+03
  8.725308e+00    3.023815e+03
  8.778312e+00    3.030255e+03
  8.831316e+00    3.027341e+03
  8.884321e+00    3.027591e+03
  8.937325e+00    3.010936e+03
  8.990329e+00    2.946996e+03
  9.043333e+00    2.862328e+03
  9.096337e+00    2.812346e+03
  9.149341e+00    2.779847e+03
  9.202345e+00    2.753520e+03
  9.255349e+00    2.733428e+03
  9.308353e+00    2.720212e+03
  9.361357e+00    2.721246e+03
  9.414362e+00    2.715630e+03
  9.467366e+00    2.711577e+03
  9.520370e+00    2.679064e+03
  9.573374e+00    2.648523e+03
  9.626378e+00    2.635984e+03
  9.679382e+00    2.630458e+03
  9.732386e+00    2.633243e+03
  9.785390e+00    2.632484e+03
  9.838394e+00    2.628053e+03
  9.891398e+00    2.623027e+03
  9.944403e+00    2.612009e+03
  9.997407e+00    2.592264e+03
  1.005041e+01    2.565099e+03
  1.010341e+01    2.527926e+03
  1.015642e+01    2.502719e+03
  1.020942e+01    2.494765e+03
  1.026243e+01    2.492710e+03
  1.031543e+01    2.503245e+03
  1.036844e+01    2.534446e+03
  1.042144e+01    2.536631e+03
  1.047444e+01    2.539067e+03
  1.052745e+01    2.529557e+03
  1.058045e+01    2.524434e+03
  1.063346e+01    2.513662e+03
  1.068646e+01    2.499615e+03
  1.073946e+01    2.482697e+03
  1.079247e+01    2.469049e+03
  1.084547e+01    2.453806e+03
  1.089848e+01    2.456300e+03
  1.095148e+01    2.453331e+03
  1.100448e+01    2.447917e+03
  1.105749e+01    2.445806e+03
  1.111049e+01    2.445830e+03
  1.116350e+01    2.436285e+03
  1.121650e+01    2.422491e+03
  1.126951e+01    2.408538e+03
  1.132251e+01    2.396777e+03
  1.137551e+01    2.387771e+03
  1.142852e+01    2.382698e+03
  1.148152e+01    2.372839e+03
  1.153453e+01    2.366859e+03
  1.158753e+01    2.358952e+03
  1.164053e+01    2.356647e+03
  1.169354e+01    2.358644e+03
  1.174654e+01    2.384389e+03
  1.179955e+01    2.376161e+03
  1.185255e+01    2.371124e+03
  1.190555e+01    2.355904e+03
  1.195856e+01    2.342962e+03
  1.201156e+01    2.334908e+03
  1.206457e+01    2.328382e+03
  1.211757e+01    2.331763e+03
  1.217057e+01    2.334245e+03
  1.222358e+01    2.330274e+03
  1.227658e+01    2.327981e+03
  1.232959e+01    2.327091e+03
  1.238259e+01    2.320586e+03
  1.243560e+01    2.320023e+03
  1.248860e+01    2.316863e+03
  1.254160e+01    2.319315e+03
  1.259461e+01    2.316963e+03
  1.264761e+01    2.309850e+03
  1.270062e+01    2.299194e+03
  1.275362e+01    2.286430e+03
  1.280662e+01    2.278499e+03
  1.285963e+01    2.269816e+03
  1.291263e+01    2.262156e+03
  1.296564e+01    2.249967e+03
  1.301864e+01    2.245657e+03
  1.307164e+01    2.235938e+03
  1.312465e+01    2.224776e+03
  1.317765e+01    2.219946e+03
  1.323066e+01    2.199846e+03
  1.328366e+01    2.193270e+03
  1.333667e+01    2.187839e+03
  1.338967e+01    2.182113e+03
  1.344267e+01    2.193024e+03
  1.349568e+01    2.188142e+03
  1.354868e+01    2.182495e+03
  1.360169e+01    2.169990e+03
  1.365469e+01    2.158023e+03
  1.370769e+01    2.151925e+03
  1.376070e+01    2.138826e+03
  1.381370e+01    2.131708e+03
  1.386671e+01    2.123673e+03
  1.391971e+01    2.116342e+03
  1.397271e+01    2.113370e+03
  1.402572e+01    2.109593e+03
  1.407872e+01    2.101811e+03
  1.413173e+01    2.097117e+03
  1.418473e+01    2.092488e+03
  1.423773e+01    2.086468e+03
  1.429074e+01    2.079990e+03
  1.434374e+01    2.079871e+03
  1.439675e+01    2.073438e+03
  1.444975e+01    2.070584e+03
  1.450276e+01    2.065157e+03
  1.455576e+01    2.060840e+03
  1.460876e+01    2.059338e+03
  1.466177e+01    2.054737e+03
  1.471477e+01    2.053969e+03
  1.476778e+01    2.055908e+03
  1.482078e+01    2.053472e+03
  1.487378e+01    2.049249e+03
  1.492679e+01    2.044841e+03
  1.497979e+01    2.040676e+03
  1.503280e+01    2.039490e+03
  1.508580e+01    2.036749e+03
  1.513880e+01    2.033900e+03
  1.519181e+01    2.039723e+03
  1.524481e+01    2.062934e+03
  1.529782e+01    2.043478e+03
  1.535082e+01    2.032955e+03
  1.540382e+01    2.027412e+03
  1.545683e+01    2.018416e+03
  1.550983e+01    2.022457e+03
  1.556284e+01    2.019233e+03
  1.561584e+01    2.012910e+03
  1.566885e+01    2.008617e+03
  1.572185e+01    2.007201e+03
  1.577485e+01    2.004312e+03
  1.582786e+01    1.999643e+03
  1.588086e+01    1.997540e+03
  1.593387e+01    1.994803e+03
  1.598687e+01    1.991707e+03
  1.603987e+01    1.983396e+03
  1.609288e+01    1.974719e+03
  1.614588e+01    1.969092e+03
  1.619889e+01    1.971145e+03
  1.625189e+01    1.973693e+03
  1.630489e+01    1.971551e+03
  1.635790e+01    1.965877e+03
  1.641090e+01    1.965450e+03
  1.646391e+01    1.957510e+03
  1.651691e+01    1.956270e+03
  1.656992e+01    1.950309e+03
  1.662292e+01    1.943964e+03
  1.667592e+01    1.944907e+03
  1.672893e+01    1.941118e+03
  1.678193e+01    1.942057e+03
  1.683494e+01    1.937744e+03
  1.688794e+01    1.935870e+03
  1.694094e+01    1.933454e+03
  1.699395e+01    1.931263e+03
  1.704695e+01    1.931110e+03
  1.709996e+01    1.922315e+03
  1.715296e+01    1.918505e+03
  1.720596e+01    1.915009e+03
  1.725897e+01    1.911480e+03
  1.731197e+01    1.907582e+03
  1.736498e+01    1.903448e+03
  1.741798e+01    1.900531e+03
  1.747098e+01    1.900857e+03
  1.752399e+01    1.896938e+03
  1.757699e+01    1.891513e+03
  1.763000e+01    1.889506e+03
  1.768300e+01    1.883670e+03
  1.773601e+01    1.878911e+03
  1.778901e+01    1.875307e+03
  1.784201e+01    1.868832e+03
  1.789502e+01    1.866900e+03
  1.794802e+01    1.861553e+03
  1.800103e+01    1.860690e+03
  1.805403e+01    1.855872e+03
  1.810703e+01    1.850657e+03
  1.816004e+01    1.846348e+03
  1.821304e+01    1.843523e+03
  1.826605e+01    1.848026e+03
  1.831905e+01    1.838158e+03
  1.837205e+01    1.835064e+03
  1.842506e+01    1.832783e+03
  1.847806e+01    1.828887e+03
  1.853107e+01    1.828708e+03
  1.858407e+01    1.827260e+03
  1.863708e+01    1.826612e+03
  1.869008e+01    1.842972e+03
  1.874308e+01    1.830012e+03
  1.879609e+01    1.825343e+03
  1.884909e+01    1.820072e+03
  1.890210e+01    1.819473e+03
  1.895510e+01    1.810599e+03
  1.900810e+01    1.807934e+03
  1.906111e+01    1.800646e+03
  1.911411e+01    1.794842e+03
  1.916712e+01    1.790638e+03
  1.922012e+01    1.786858e+03
  1.927312e+01    1.781154e+03
  1.932613e+01    1.777858e+03
  1.937913e+01    1.771267e+03
  1.943214e+01    1.765968e+03
  1.948514e+01    1.762837e+03
  1.953814e+01    1.756507e+03
  1.959115e+01    1.754190e+03
  1.964415e+01    1.746972e+03
  1.969716e+01    1.743585e+03
  1.975016e+01    1.738896e+03
  1.980317e+01    1.735332e+03
  1.985617e+01    1.730689e+03
  1.990917e+01    1.724179e+03
  1.996218e+01    1.719128e+03
  2.001518e+01    1.715504e+03
  2.006819e+01    1.707174e+03
  2.012119e+01    1.701158e+03
  2.017419e+01    1.695935e+03
  2.022720e+01    1.690792e+03
  2.028020e+01    1.683244e+03
  2.033321e+01    1.678110e+03
  2.038621e+01    1.673468e+03
  2.043921e+01    1.668690e+03
  2.049222e+01    1.664691e+03
  2.054522e+01    1.657281e+03
  2.059823e+01    1.653659e+03
  2.065123e+01    1.649190e+03
  2.070424e+01    1.645860e+03
  2.075724e+01    1.645948e+03
  2.081024e+01    1.664405e+03
  2.086325e+01    1.641155e+03
  2.091625e+01    1.623890e+03
  2.096926e+01    1.612530e+03
  2.102226e+01    1.602131e+03
  2.107526e+01    1.591395e+03
  2.112827e+01    1.580158e+03
  2.118127e+01    1.572859e+03
  2.123428e+01    1.562484e+03
  2.128728e+01    1.554616e+03
  2.134028e+01    1.546045e+03
  2.139329e+01    1.534652e+03
  2.144629e+01    1.524984e+03
  2.149930e+01    1.518563e+03
  2.155230e+01    1.510210e+03
  2.160530e+01    1.501102e+03
  2.165831e+01    1.492294e+03
  2.171131e+01    1.485009e+03
  2.176432e+01    1.480675e+03
  2.181732e+01    1.469746e+03
  2.187033e+01    1.461020e+03
  2.192333e+01    1.454274e+03
  2.197633e+01    1.446874e+03
  2.202934e+01    1.437179e+03
  2.208234e+01    1.427507e+03
  2.213535e+01    1.419466e+03
  2.218835e+01    1.410436e+03
  2.224135e+01    1.402953e+03
  2.229436e+01    1.395017e+03
  2.234736e+01    1.387930e+03
  2.240037e+01    1.376604e+03
  2.245337e+01    1.369078e+03
  2.250637e+01    1.362939e+03
  2.255938e+01    1.355453e+03
  2.261238e+01    1.357406e+03
  2.266539e+01    1.358785e+03
  2.271839e+01    1.361127e+03
  2.277140e+01    1.359917e+03
  2.282440e+01    1.358318e+03
  2.287740e+01    1.355890e+03
  2.293041e+01    1.355798e+03
  2.298341e+01    1.353770e+03
  2.303642e+01    1.354766e+03
  2.308942e+01    1.352108e+03
  2.314242e+01    1.349309e+03
  2.319543e+01    1.344771e+03
  2.324843e+01    1.342137e+03
  2.330144e+01    1.338933e+03
  2.335444e+01    1.337078e+03
  2.340744e+01    1.336626e+03
  2.346045e+01    1.335046e+03
  2.351345e+01    1.333262e+03
  2.356646e+01    1.327508e+03
  2.361946e+01    1.329126e+03
  2.367246e+01    1.328062e+03
  2.372547e+01    1.321960e+03
  2.377847e+01    1.317329e+03
  2.383148e+01    1.313136e+03
  2.388448e+01    1.310022e+03
  2.393749e+01    1.304516e+03
  2.399049e+01    1.303914e+03
  2.404349e+01    1.300816e+03
  2.409650e+01    1.293118e+03
  2.414950e+01    1.290993e+03
  2.420251e+01    1.283803e+03
  2.425551e+01    1.277565e+03
  2.430851e+01    1.271048e+03
  2.436152e+01    1.265600e+03
  2.441452e+01    1.260165e+03
  2.446753e+01    1.255202e+03
  2.452053e+01    1.247140e+03
  2.457353e+01    1.243802e+03
  2.462654e+01    1.240059e+03
  2.467954e+01    1.230107e+03
  2.473255e+01    1.222171e+03
  2.478555e+01    1.213254e+03
  2.483855e+01    1.203248e+03
  2.489156e+01    1.198241e+03
  2.494456e+01    1.183506e+03
  2.499757e+01    1.178105e+03
  2.505057e+01    1.170803e+03
  2.510358e+01    1.162246e+03
  2.515658e+01    1.157714e+03
  2.520958e+01    1.153059e+03
  2.526259e+01    1.146039e+03
  2.531559e+01    1.140371e+03
  2.536860e+01    1.135505e+03
  2.542160e+01    1.129504e+03
  2.547460e+01    1.123158e+03
  2.552761e+01    1.115286e+03
  2.558061e+01    1.109882e+03
  2.563362e+01    1.110386e+03
  2.568662e+01    1.099533e+03
  2.573962e+01    1.092167e+03
  2.579263e+01    1.083387e+03
  2.584563e+01    1.076455e+03
  2.589864e+01    1.073719e+03
  2.595164e+01    1.072875e+03
  2.600465e+01    1.066324e+03
  2.605765e+01    1.069879e+03
  2.611065e+01    1.062260e+03
  2.616366e+01    1.065307e+03
  2.621666e+01    1.056697e+03
  2.626967e+01    1.039281e+03
  2.632267e+01    1.037759e+03
  2.637567e+01    1.033295e+03
  2.642868e+01    1.014333e+03
  2.648168e+01    9.935292e+02
