# == pyFAI calibration ==
# Distance Sample to Detector: 0.2945755399789714 m
# PONI: 2.880e-01, 2.450e-01 m
# Rotations: -0.007291 -0.010887 -0.000000 rad
# 
# == Fit2d calibration ==
# Distance Sample-beamCenter: 294.601 mm
# Center: x=1437.174, y=1655.617 pix
# Tilt: 0.751 deg  TiltPlanRot: -56.193 deg
# 
# Detector Pilatus CdTe 2M	 PixelSize= 1.720e-04, 1.720e-04 m
#    Detector has a mask: True 
#    Detector has a dark current: False 
#    detector has a flat field: False 
# 
# Wavelength: 2.0732883349524408e-11 m
# Mask applied: from detector
# Dark current applied: False
# Flat field applied: False
# Polarization factor: 0.9
# Normalization factor: 1.0
# --> /gpfs/current/raw/FMue_2/FMue_2_20231024_120911_00406.dat
#        q_A^-1             I 
  3.263564e-02             nan
  8.563974e-02             nan
  1.386438e-01             nan
  1.916479e-01             nan
  2.446520e-01    3.809229e+04
  2.976561e-01    2.938795e+04
  3.506602e-01    1.571079e+04
  4.036643e-01    1.100308e+04
  4.566684e-01    9.369595e+03
  5.096725e-01    8.914845e+03
  5.626766e-01    8.602458e+03
  6.156807e-01    8.261261e+03
  6.686848e-01    8.096442e+03
  7.216890e-01    8.154291e+03
  7.746931e-01    8.160672e+03
  8.276972e-01    8.222562e+03
  8.807013e-01    8.300642e+03
  9.337054e-01    8.447986e+03
  9.867095e-01    8.594670e+03
  1.039714e+00    8.856598e+03
  1.092718e+00    9.186246e+03
  1.145722e+00    9.657990e+03
  1.198726e+00    1.024416e+04
  1.251730e+00    1.092662e+04
  1.304734e+00    1.182926e+04
  1.357738e+00    1.269420e+04
  1.410742e+00    1.337624e+04
  1.463746e+00    1.370339e+04
  1.516750e+00    1.365741e+04
  1.569755e+00    1.317270e+04
  1.622759e+00    1.251172e+04
  1.675763e+00    1.165670e+04
  1.728767e+00    1.075853e+04
  1.781771e+00    9.950021e+03
  1.834775e+00    9.288799e+03
  1.887779e+00    8.714884e+03
  1.940783e+00    8.348264e+03
  1.993787e+00    8.024558e+03
  2.046791e+00    7.826658e+03
  2.099796e+00    7.749307e+03
  2.152800e+00    7.750132e+03
  2.205804e+00    7.772385e+03
  2.258808e+00    7.759154e+03
  2.311812e+00    7.687995e+03
  2.364816e+00    7.676607e+03
  2.417820e+00    7.900185e+03
  2.470824e+00    8.450551e+03
  2.523828e+00    9.324805e+03
  2.576832e+00    9.917129e+03
  2.629837e+00    9.099039e+03
  2.682841e+00    7.909484e+03
  2.735845e+00    7.398365e+03
  2.788849e+00    6.783300e+03
  2.841853e+00    6.467725e+03
  2.894857e+00    6.931628e+03
  2.947861e+00    8.477682e+03
  3.000865e+00    1.166377e+04
  3.053869e+00    1.392456e+04
  3.106874e+00    1.189715e+04
  3.159878e+00    1.009054e+04
  3.212882e+00    8.566296e+03
  3.265886e+00    6.556994e+03
  3.318890e+00    5.688725e+03
  3.371894e+00    5.580040e+03
  3.424898e+00    5.894398e+03
  3.477902e+00    6.607741e+03
  3.530906e+00    6.649772e+03
  3.583910e+00    5.727128e+03
  3.636915e+00    5.078014e+03
  3.689919e+00    4.895555e+03
  3.742923e+00    4.873059e+03
  3.795927e+00    4.934216e+03
  3.848931e+00    5.021003e+03
  3.901935e+00    5.181847e+03
  3.954939e+00    5.400601e+03
  4.007943e+00    5.702018e+03
  4.060947e+00    6.040343e+03
  4.113951e+00    6.400511e+03
  4.166956e+00    6.847624e+03
  4.219960e+00    7.371037e+03
  4.272964e+00    7.173136e+03
  4.325968e+00    6.800781e+03
  4.378972e+00    7.374317e+03
  4.431976e+00    9.448654e+03
  4.484980e+00    1.045644e+04
  4.537984e+00    8.257203e+03
  4.590988e+00    6.210880e+03
  4.643992e+00    5.475176e+03
  4.696997e+00    5.277195e+03
  4.750001e+00    5.231414e+03
  4.803005e+00    5.274686e+03
  4.856009e+00    5.476217e+03
  4.909013e+00    5.998651e+03
  4.962017e+00    6.755182e+03
  5.015021e+00    6.635303e+03
  5.068025e+00    5.883949e+03
  5.121029e+00    5.513021e+03
  5.174033e+00    5.300946e+03
  5.227038e+00    4.986082e+03
  5.280042e+00    4.662644e+03
  5.333046e+00    4.425620e+03
  5.386050e+00    4.289042e+03
  5.439054e+00    4.287572e+03
  5.492058e+00    4.253288e+03
  5.545062e+00    3.972743e+03
  5.598066e+00    3.770788e+03
  5.651070e+00    3.729538e+03
  5.704074e+00    3.816894e+03
  5.757079e+00    4.150047e+03
  5.810083e+00    4.783664e+03
  5.863087e+00    4.871166e+03
  5.916091e+00    4.352158e+03
  5.969095e+00    4.122521e+03
  6.022099e+00    4.128922e+03
  6.075103e+00    4.230062e+03
  6.128107e+00    4.120589e+03
  6.181111e+00    3.866618e+03
  6.234115e+00    3.810849e+03
  6.287120e+00    3.865999e+03
  6.340124e+00    3.844990e+03
  6.393128e+00    3.767291e+03
  6.446132e+00    3.652182e+03
  6.499136e+00    3.603202e+03
  6.552140e+00    3.565071e+03
  6.605144e+00    3.559908e+03
  6.658148e+00    3.560071e+03
  6.711152e+00    3.509830e+03
  6.764156e+00    3.437652e+03
  6.817161e+00    3.355847e+03
  6.870165e+00    3.274450e+03
  6.923169e+00    3.224456e+03
  6.976173e+00    3.270577e+03
  7.029177e+00    3.346137e+03
  7.082181e+00    3.364610e+03
  7.135185e+00    3.291812e+03
  7.188189e+00    3.221591e+03
  7.241193e+00    3.205032e+03
  7.294197e+00    3.236371e+03
  7.347202e+00    3.243721e+03
  7.400206e+00    3.238522e+03
  7.453210e+00    3.242300e+03
  7.506214e+00    3.275146e+03
  7.559218e+00    3.333539e+03
  7.612222e+00    3.478092e+03
  7.665226e+00    3.710702e+03
  7.718230e+00    3.885286e+03
  7.771234e+00    3.815049e+03
  7.824239e+00    3.645965e+03
  7.877243e+00    3.512283e+03
  7.930247e+00    3.304150e+03
  7.983251e+00    3.156947e+03
  8.036255e+00    3.101168e+03
  8.089259e+00    3.077559e+03
  8.142263e+00    3.070554e+03
  8.195267e+00    3.060589e+03
  8.248271e+00    3.043450e+03
  8.301275e+00    3.021949e+03
  8.354280e+00    3.003737e+03
  8.407284e+00    2.996206e+03
  8.460288e+00    2.990354e+03
  8.513292e+00    2.996901e+03
  8.566296e+00    3.036738e+03
  8.619300e+00    3.065838e+03
  8.672304e+00    3.031304e+03
  8.725308e+00    2.982472e+03
  8.778312e+00    2.948380e+03
  8.831316e+00    2.935499e+03
  8.884321e+00    2.940195e+03
  8.937325e+00    2.935979e+03
  8.990329e+00    2.902712e+03
  9.043333e+00    2.859988e+03
  9.096337e+00    2.848143e+03
  9.149341e+00    2.844804e+03
  9.202345e+00    2.784589e+03
  9.255349e+00    2.721230e+03
  9.308353e+00    2.687771e+03
  9.361357e+00    2.669503e+03
  9.414362e+00    2.653146e+03
  9.467366e+00    2.654453e+03
  9.520370e+00    2.635063e+03
  9.573374e+00    2.609396e+03
  9.626378e+00    2.595114e+03
  9.679382e+00    2.588121e+03
  9.732386e+00    2.589077e+03
  9.785390e+00    2.585642e+03
  9.838394e+00    2.587298e+03
  9.891398e+00    2.596668e+03
  9.944403e+00    2.602344e+03
  9.997407e+00    2.588606e+03
  1.005041e+01    2.558286e+03
  1.010341e+01    2.516802e+03
  1.015642e+01    2.497592e+03
  1.020942e+01    2.488611e+03
  1.026243e+01    2.488063e+03
  1.031543e+01    2.510727e+03
  1.036844e+01    2.567670e+03
  1.042144e+01    2.591433e+03
  1.047444e+01    2.580768e+03
  1.052745e+01    2.560954e+03
  1.058045e+01    2.541241e+03
  1.063346e+01    2.510285e+03
  1.068646e+01    2.484337e+03
  1.073946e+01    2.461301e+03
  1.079247e+01    2.448030e+03
  1.084547e+01    2.434854e+03
  1.089848e+01    2.435643e+03
  1.095148e+01    2.434463e+03
  1.100448e+01    2.424827e+03
  1.105749e+01    2.421661e+03
  1.111049e+01    2.418870e+03
  1.116350e+01    2.407762e+03
  1.121650e+01    2.398230e+03
  1.126951e+01    2.384326e+03
  1.132251e+01    2.377837e+03
  1.137551e+01    2.369331e+03
  1.142852e+01    2.367844e+03
  1.148152e+01    2.367731e+03
  1.153453e+01    2.370159e+03
  1.158753e+01    2.367363e+03
  1.164053e+01    2.361147e+03
  1.169354e+01    2.359873e+03
  1.174654e+01    2.379401e+03
  1.179955e+01    2.366621e+03
  1.185255e+01    2.353101e+03
  1.190555e+01    2.339168e+03
  1.195856e+01    2.324086e+03
  1.201156e+01    2.314535e+03
  1.206457e+01    2.306390e+03
  1.211757e+01    2.307581e+03
  1.217057e+01    2.308175e+03
  1.222358e+01    2.306993e+03
  1.227658e+01    2.304008e+03
  1.232959e+01    2.304900e+03
  1.238259e+01    2.301102e+03
  1.243560e+01    2.303156e+03
  1.248860e+01    2.306748e+03
  1.254160e+01    2.311675e+03
  1.259461e+01    2.309266e+03
  1.264761e+01    2.299090e+03
  1.270062e+01    2.286307e+03
  1.275362e+01    2.271860e+03
  1.280662e+01    2.261294e+03
  1.285963e+01    2.252966e+03
  1.291263e+01    2.240778e+03
  1.296564e+01    2.232651e+03
  1.301864e+01    2.229130e+03
  1.307164e+01    2.223801e+03
  1.312465e+01    2.218824e+03
  1.317765e+01    2.215135e+03
  1.323066e+01    2.195657e+03
  1.328366e+01    2.182913e+03
  1.333667e+01    2.177285e+03
  1.338967e+01    2.172932e+03
  1.344267e+01    2.186020e+03
  1.349568e+01    2.184865e+03
  1.354868e+01    2.175455e+03
  1.360169e+01    2.161208e+03
  1.365469e+01    2.144536e+03
  1.370769e+01    2.137239e+03
  1.376070e+01    2.124724e+03
  1.381370e+01    2.117560e+03
  1.386671e+01    2.109083e+03
  1.391971e+01    2.102861e+03
  1.397271e+01    2.099229e+03
  1.402572e+01    2.094559e+03
  1.407872e+01    2.088544e+03
  1.413173e+01    2.082091e+03
  1.418473e+01    2.080203e+03
  1.423773e+01    2.075438e+03
  1.429074e+01    2.067482e+03
  1.434374e+01    2.066453e+03
  1.439675e+01    2.062623e+03
  1.444975e+01    2.059673e+03
  1.450276e+01    2.054859e+03
  1.455576e+01    2.047320e+03
  1.460876e+01    2.045599e+03
  1.466177e+01    2.039038e+03
  1.471477e+01    2.038088e+03
  1.476778e+01    2.040201e+03
  1.482078e+01    2.038609e+03
  1.487378e+01    2.034909e+03
  1.492679e+01    2.031054e+03
  1.497979e+01    2.026543e+03
  1.503280e+01    2.024007e+03
  1.508580e+01    2.022856e+03
  1.513880e+01    2.019942e+03
  1.519181e+01    2.027028e+03
  1.524481e+01    2.050861e+03
  1.529782e+01    2.031771e+03
  1.535082e+01    2.022553e+03
  1.540382e+01    2.014858e+03
  1.545683e+01    2.005614e+03
  1.550983e+01    2.010713e+03
  1.556284e+01    2.006018e+03
  1.561584e+01    2.001347e+03
  1.566885e+01    1.996045e+03
  1.572185e+01    1.993494e+03
  1.577485e+01    1.993007e+03
  1.582786e+01    1.986814e+03
  1.588086e+01    1.983328e+03
  1.593387e+01    1.984498e+03
  1.598687e+01    1.981558e+03
  1.603987e+01    1.973939e+03
  1.609288e+01    1.965781e+03
  1.614588e+01    1.958956e+03
  1.619889e+01    1.960586e+03
  1.625189e+01    1.962560e+03
  1.630489e+01    1.959651e+03
  1.635790e+01    1.956217e+03
  1.641090e+01    1.951740e+03
  1.646391e+01    1.945807e+03
  1.651691e+01    1.944135e+03
  1.656992e+01    1.939329e+03
  1.662292e+01    1.933074e+03
  1.667592e+01    1.932485e+03
  1.672893e+01    1.930121e+03
  1.678193e+01    1.929751e+03
  1.683494e+01    1.924060e+03
  1.688794e+01    1.924239e+03
  1.694094e+01    1.920859e+03
  1.699395e+01    1.916374e+03
  1.704695e+01    1.911771e+03
  1.709996e+01    1.908989e+03
  1.715296e+01    1.905513e+03
  1.720596e+01    1.903377e+03
  1.725897e+01    1.899490e+03
  1.731197e+01    1.896832e+03
  1.736498e+01    1.891792e+03
  1.741798e+01    1.890296e+03
  1.747098e+01    1.891102e+03
  1.752399e+01    1.887189e+03
  1.757699e+01    1.882898e+03
  1.763000e+01    1.877281e+03
  1.768300e+01    1.872505e+03
  1.773601e+01    1.869699e+03
  1.778901e+01    1.863670e+03
  1.784201e+01    1.858715e+03
  1.789502e+01    1.857963e+03
  1.794802e+01    1.851017e+03
  1.800103e+01    1.849853e+03
  1.805403e+01    1.847032e+03
  1.810703e+01    1.839429e+03
  1.816004e+01    1.837651e+03
  1.821304e+01    1.834400e+03
  1.826605e+01    1.838326e+03
  1.831905e+01    1.828437e+03
  1.837205e+01    1.825508e+03
  1.842506e+01    1.821581e+03
  1.847806e+01    1.819040e+03
  1.853107e+01    1.817777e+03
  1.858407e+01    1.816283e+03
  1.863708e+01    1.816177e+03
  1.869008e+01    1.829476e+03
  1.874308e+01    1.819759e+03
  1.879609e+01    1.814214e+03
  1.884909e+01    1.810514e+03
  1.890210e+01    1.806211e+03
  1.895510e+01    1.798759e+03
  1.900810e+01    1.797435e+03
  1.906111e+01    1.788761e+03
  1.911411e+01    1.781332e+03
  1.916712e+01    1.778254e+03
  1.922012e+01    1.774500e+03
  1.927312e+01    1.766511e+03
  1.932613e+01    1.764478e+03
  1.937913e+01    1.759655e+03
  1.943214e+01    1.753582e+03
  1.948514e+01    1.749997e+03
  1.953814e+01    1.745006e+03
  1.959115e+01    1.740951e+03
  1.964415e+01    1.735406e+03
  1.969716e+01    1.732967e+03
  1.975016e+01    1.727647e+03
  1.980317e+01    1.722806e+03
  1.985617e+01    1.718037e+03
  1.990917e+01    1.711855e+03
  1.996218e+01    1.706651e+03
  2.001518e+01    1.702904e+03
  2.006819e+01    1.696765e+03
  2.012119e+01    1.690081e+03
  2.017419e+01    1.687103e+03
  2.022720e+01    1.681313e+03
  2.028020e+01    1.673034e+03
  2.033321e+01    1.667530e+03
  2.038621e+01    1.661485e+03
  2.043921e+01    1.657791e+03
  2.049222e+01    1.653597e+03
  2.054522e+01    1.647898e+03
  2.059823e+01    1.643152e+03
  2.065123e+01    1.637559e+03
  2.070424e+01    1.635014e+03
  2.075724e+01    1.634504e+03
  2.081024e+01    1.640760e+03
  2.086325e+01    1.630068e+03
  2.091625e+01    1.614648e+03
  2.096926e+01    1.599795e+03
  2.102226e+01    1.588807e+03
  2.107526e+01    1.580973e+03
  2.112827e+01    1.570189e+03
  2.118127e+01    1.562787e+03
  2.123428e+01    1.551692e+03
  2.128728e+01    1.544365e+03
  2.134028e+01    1.535423e+03
  2.139329e+01    1.525346e+03
  2.144629e+01    1.515980e+03
  2.149930e+01    1.507908e+03
  2.155230e+01    1.498853e+03
  2.160530e+01    1.491356e+03
  2.165831e+01    1.482561e+03
  2.171131e+01    1.474609e+03
  2.176432e+01    1.470748e+03
  2.181732e+01    1.460765e+03
  2.187033e+01    1.451380e+03
  2.192333e+01    1.444514e+03
  2.197633e+01    1.435966e+03
  2.202934e+01    1.427813e+03
  2.208234e+01    1.419224e+03
  2.213535e+01    1.410113e+03
  2.218835e+01    1.401409e+03
  2.224135e+01    1.393009e+03
  2.229436e+01    1.385927e+03
  2.234736e+01    1.378710e+03
  2.240037e+01    1.369075e+03
  2.245337e+01    1.361411e+03
  2.250637e+01    1.355207e+03
  2.255938e+01    1.347100e+03
  2.261238e+01    1.350751e+03
  2.266539e+01    1.349872e+03
  2.271839e+01    1.353334e+03
  2.277140e+01    1.350999e+03
  2.282440e+01    1.351113e+03
  2.287740e+01    1.346698e+03
  2.293041e+01    1.347455e+03
  2.298341e+01    1.347027e+03
  2.303642e+01    1.346779e+03
  2.308942e+01    1.343724e+03
  2.314242e+01    1.340040e+03
  2.319543e+01    1.339174e+03
  2.324843e+01    1.334270e+03
  2.330144e+01    1.332158e+03
  2.335444e+01    1.329989e+03
  2.340744e+01    1.327835e+03
  2.346045e+01    1.326325e+03
  2.351345e+01    1.324955e+03
  2.356646e+01    1.319462e+03
  2.361946e+01    1.320403e+03
  2.367246e+01    1.317710e+03
  2.372547e+01    1.312893e+03
  2.377847e+01    1.309524e+03
  2.383148e+01    1.305453e+03
  2.388448e+01    1.301721e+03
  2.393749e+01    1.296532e+03
  2.399049e+01    1.294737e+03
  2.404349e+01    1.292475e+03
  2.409650e+01    1.285292e+03
  2.414950e+01    1.281515e+03
  2.420251e+01    1.273215e+03
  2.425551e+01    1.271929e+03
  2.430851e+01    1.261151e+03
  2.436152e+01    1.258258e+03
  2.441452e+01    1.252585e+03
  2.446753e+01    1.248757e+03
  2.452053e+01    1.240019e+03
  2.457353e+01    1.236142e+03
  2.462654e+01    1.233405e+03
  2.467954e+01    1.223151e+03
  2.473255e+01    1.215915e+03
  2.478555e+01    1.205341e+03
  2.483855e+01    1.196312e+03
  2.489156e+01    1.189219e+03
  2.494456e+01    1.177156e+03
  2.499757e+01    1.171045e+03
  2.505057e+01    1.162064e+03
  2.510358e+01    1.156072e+03
  2.515658e+01    1.149938e+03
  2.520958e+01    1.145318e+03
  2.526259e+01    1.139803e+03
  2.531559e+01    1.133662e+03
  2.536860e+01    1.128262e+03
  2.542160e+01    1.122373e+03
  2.547460e+01    1.116116e+03
  2.552761e+01    1.107770e+03
  2.558061e+01    1.107859e+03
  2.563362e+01    1.103810e+03
  2.568662e+01    1.094208e+03
  2.573962e+01    1.085550e+03
  2.579263e+01    1.079649e+03
  2.584563e+01    1.068089e+03
  2.589864e+01    1.069854e+03
  2.595164e+01    1.066113e+03
  2.600465e+01    1.067396e+03
  2.605765e+01    1.056185e+03
  2.611065e+01    1.059087e+03
  2.616366e+01    1.054822e+03
  2.621666e+01    1.045822e+03
  2.626967e+01    1.037070e+03
  2.632267e+01    1.031746e+03
  2.637567e+01    1.025668e+03
  2.642868e+01    1.009109e+03
  2.648168e+01    1.002253e+03
