# == pyFAI calibration ==
# Distance Sample to Detector: 0.2945755399789714 m
# PONI: 2.880e-01, 2.450e-01 m
# Rotations: -0.007291 -0.010887 -0.000000 rad
# 
# == Fit2d calibration ==
# Distance Sample-beamCenter: 294.601 mm
# Center: x=1437.174, y=1655.617 pix
# Tilt: 0.751 deg  TiltPlanRot: -56.193 deg
# 
# Detector Pilatus CdTe 2M	 PixelSize= 1.720e-04, 1.720e-04 m
#    Detector has a mask: True 
#    Detector has a dark current: False 
#    detector has a flat field: False 
# 
# Wavelength: 2.0732883349524408e-11 m
# Mask applied: from detector
# Dark current applied: False
# Flat field applied: False
# Polarization factor: 0.9
# Normalization factor: 1.0
# --> /gpfs/current/raw/FMue_2/FMue_2_20231024_120911_00131.dat
#        q_A^-1             I 
  3.263564e-02             nan
  8.563974e-02             nan
  1.386438e-01             nan
  1.916479e-01             nan
  2.446520e-01    3.931225e+04
  2.976561e-01    3.018683e+04
  3.506602e-01    1.592077e+04
  4.036643e-01    1.112000e+04
  4.566684e-01    9.483127e+03
  5.096725e-01    9.077954e+03
  5.626766e-01    8.795034e+03
  6.156807e-01    8.445590e+03
  6.686848e-01    8.277762e+03
  7.216890e-01    8.307103e+03
  7.746931e-01    8.300083e+03
  8.276972e-01    8.373195e+03
  8.807013e-01    8.433044e+03
  9.337054e-01    8.563713e+03
  9.867095e-01    8.726532e+03
  1.039714e+00    8.967543e+03
  1.092718e+00    9.283260e+03
  1.145722e+00    9.762295e+03
  1.198726e+00    1.034857e+04
  1.251730e+00    1.103916e+04
  1.304734e+00    1.192879e+04
  1.357738e+00    1.278628e+04
  1.410742e+00    1.346686e+04
  1.463746e+00    1.381834e+04
  1.516750e+00    1.377037e+04
  1.569755e+00    1.328962e+04
  1.622759e+00    1.265628e+04
  1.675763e+00    1.180257e+04
  1.728767e+00    1.092277e+04
  1.781771e+00    1.013675e+04
  1.834775e+00    9.479089e+03
  1.887779e+00    8.915872e+03
  1.940783e+00    8.570176e+03
  1.993787e+00    8.270361e+03
  2.046791e+00    8.102753e+03
  2.099796e+00    8.048293e+03
  2.152800e+00    8.065548e+03
  2.205804e+00    8.146959e+03
  2.258808e+00    8.222667e+03
  2.311812e+00    8.256895e+03
  2.364816e+00    8.316763e+03
  2.417820e+00    8.639728e+03
  2.470824e+00    9.363758e+03
  2.523828e+00    1.092297e+04
  2.576832e+00    1.286730e+04
  2.629837e+00    1.100095e+04
  2.682841e+00    8.456372e+03
  2.735845e+00    7.722859e+03
  2.788849e+00    7.088873e+03
  2.841853e+00    6.767246e+03
  2.894857e+00    7.714549e+03
  2.947861e+00    1.114538e+04
  3.000865e+00    1.291552e+04
  3.053869e+00    9.540395e+03
  3.106874e+00    7.998891e+03
  3.159878e+00    8.560847e+03
  3.212882e+00    7.861445e+03
  3.265886e+00    6.006255e+03
  3.318890e+00    5.077958e+03
  3.371894e+00    4.827957e+03
  3.424898e+00    4.732534e+03
  3.477902e+00    4.694043e+03
  3.530906e+00    4.665889e+03
  3.583910e+00    4.651386e+03
  3.636915e+00    4.670209e+03
  3.689919e+00    4.721920e+03
  3.742923e+00    4.796828e+03
  3.795927e+00    4.913913e+03
  3.848931e+00    5.057457e+03
  3.901935e+00    5.242869e+03
  3.954939e+00    5.464103e+03
  4.007943e+00    5.810369e+03
  4.060947e+00    6.310735e+03
  4.113951e+00    7.103895e+03
  4.166956e+00    8.831290e+03
  4.219960e+00    1.099339e+04
  4.272964e+00    9.537790e+03
  4.325968e+00    7.271640e+03
  4.378972e+00    7.290955e+03
  4.431976e+00    9.300419e+03
  4.484980e+00    1.065754e+04
  4.537984e+00    8.637636e+03
  4.590988e+00    6.459781e+03
  4.643992e+00    5.645052e+03
  4.696997e+00    5.431589e+03
  4.750001e+00    5.392608e+03
  4.803005e+00    5.454694e+03
  4.856009e+00    5.737093e+03
  4.909013e+00    6.328208e+03
  4.962017e+00    6.627699e+03
  5.015021e+00    6.062229e+03
  5.068025e+00    5.675256e+03
  5.121029e+00    5.818505e+03
  5.174033e+00    5.958726e+03
  5.227038e+00    5.366224e+03
  5.280042e+00    4.699981e+03
  5.333046e+00    4.364263e+03
  5.386050e+00    4.196275e+03
  5.439054e+00    4.181573e+03
  5.492058e+00    4.169213e+03
  5.545062e+00    3.880955e+03
  5.598066e+00    3.635121e+03
  5.651070e+00    3.533972e+03
  5.704074e+00    3.505807e+03
  5.757079e+00    3.507599e+03
  5.810083e+00    3.548742e+03
  5.863087e+00    3.643214e+03
  5.916091e+00    3.847430e+03
  5.969095e+00    4.059720e+03
  6.022099e+00    4.035776e+03
  6.075103e+00    3.905275e+03
  6.128107e+00    3.817029e+03
  6.181111e+00    3.783327e+03
  6.234115e+00    3.846789e+03
  6.287120e+00    3.975143e+03
  6.340124e+00    4.025921e+03
  6.393128e+00    4.029510e+03
  6.446132e+00    4.043009e+03
  6.499136e+00    4.093330e+03
  6.552140e+00    4.033540e+03
  6.605144e+00    4.039141e+03
  6.658148e+00    4.161870e+03
  6.711152e+00    4.026260e+03
  6.764156e+00    3.699831e+03
  6.817161e+00    3.480733e+03
  6.870165e+00    3.356353e+03
  6.923169e+00    3.278290e+03
  6.976173e+00    3.299009e+03
  7.029177e+00    3.356040e+03
  7.082181e+00    3.408043e+03
  7.135185e+00    3.392204e+03
  7.188189e+00    3.385882e+03
  7.241193e+00    3.477836e+03
  7.294197e+00    3.641329e+03
  7.347202e+00    3.594788e+03
  7.400206e+00    3.399490e+03
  7.453210e+00    3.286180e+03
  7.506214e+00    3.254582e+03
  7.559218e+00    3.253756e+03
  7.612222e+00    3.297090e+03
  7.665226e+00    3.441181e+03
  7.718230e+00    3.693333e+03
  7.771234e+00    3.730169e+03
  7.824239e+00    3.460590e+03
  7.877243e+00    3.218478e+03
  7.930247e+00    3.092903e+03
  7.983251e+00    3.045033e+03
  8.036255e+00    3.036726e+03
  8.089259e+00    3.040256e+03
  8.142263e+00    3.051264e+03
  8.195267e+00    3.057114e+03
  8.248271e+00    3.059800e+03
  8.301275e+00    3.056646e+03
  8.354280e+00    3.060682e+03
  8.407284e+00    3.076560e+03
  8.460288e+00    3.073548e+03
  8.513292e+00    3.034313e+03
  8.566296e+00    3.011408e+03
  8.619300e+00    2.997735e+03
  8.672304e+00    3.005017e+03
  8.725308e+00    3.035428e+03
  8.778312e+00    3.068723e+03
  8.831316e+00    3.091096e+03
  8.884321e+00    3.102269e+03
  8.937325e+00    3.087798e+03
  8.990329e+00    3.014284e+03
  9.043333e+00    2.892257e+03
  9.096337e+00    2.804188e+03
  9.149341e+00    2.760894e+03
  9.202345e+00    2.741868e+03
  9.255349e+00    2.734331e+03
  9.308353e+00    2.732517e+03
  9.361357e+00    2.747112e+03
  9.414362e+00    2.755289e+03
  9.467366e+00    2.757473e+03
  9.520370e+00    2.721323e+03
  9.573374e+00    2.677138e+03
  9.626378e+00    2.658820e+03
  9.679382e+00    2.654537e+03
  9.732386e+00    2.660718e+03
  9.785390e+00    2.664679e+03
  9.838394e+00    2.663044e+03
  9.891398e+00    2.654510e+03
  9.944403e+00    2.642049e+03
  9.997407e+00    2.614043e+03
  1.005041e+01    2.583924e+03
  1.010341e+01    2.538382e+03
  1.015642e+01    2.515104e+03
  1.020942e+01    2.501517e+03
  1.026243e+01    2.494425e+03
  1.031543e+01    2.503765e+03
  1.036844e+01    2.526428e+03
  1.042144e+01    2.522449e+03
  1.047444e+01    2.525647e+03
  1.052745e+01    2.522323e+03
  1.058045e+01    2.527261e+03
  1.063346e+01    2.529021e+03
  1.068646e+01    2.524293e+03
  1.073946e+01    2.508421e+03
  1.079247e+01    2.490500e+03
  1.084547e+01    2.472914e+03
  1.089848e+01    2.470601e+03
  1.095148e+01    2.469049e+03
  1.100448e+01    2.465256e+03
  1.105749e+01    2.464446e+03
  1.111049e+01    2.472461e+03
  1.116350e+01    2.464001e+03
  1.121650e+01    2.453087e+03
  1.126951e+01    2.430437e+03
  1.132251e+01    2.416786e+03
  1.137551e+01    2.406241e+03
  1.142852e+01    2.399320e+03
  1.148152e+01    2.386667e+03
  1.153453e+01    2.372298e+03
  1.158753e+01    2.363376e+03
  1.164053e+01    2.356763e+03
  1.169354e+01    2.362426e+03
  1.174654e+01    2.387192e+03
  1.179955e+01    2.388870e+03
  1.185255e+01    2.384348e+03
  1.190555e+01    2.372337e+03
  1.195856e+01    2.361532e+03
  1.201156e+01    2.349363e+03
  1.206457e+01    2.341848e+03
  1.211757e+01    2.347153e+03
  1.217057e+01    2.351671e+03
  1.222358e+01    2.348661e+03
  1.227658e+01    2.348062e+03
  1.232959e+01    2.348038e+03
  1.238259e+01    2.335472e+03
  1.243560e+01    2.334858e+03
  1.248860e+01    2.329521e+03
  1.254160e+01    2.332282e+03
  1.259461e+01    2.329655e+03
  1.264761e+01    2.323989e+03
  1.270062e+01    2.313866e+03
  1.275362e+01    2.304094e+03
  1.280662e+01    2.296980e+03
  1.285963e+01    2.290631e+03
  1.291263e+01    2.280290e+03
  1.296564e+01    2.267705e+03
  1.301864e+01    2.259100e+03
  1.307164e+01    2.247224e+03
  1.312465e+01    2.235283e+03
  1.317765e+01    2.230264e+03
  1.323066e+01    2.209557e+03
  1.328366e+01    2.204224e+03
  1.333667e+01    2.200374e+03
  1.338967e+01    2.197894e+03
  1.344267e+01    2.208300e+03
  1.349568e+01    2.203969e+03
  1.354868e+01    2.198819e+03
  1.360169e+01    2.190398e+03
  1.365469e+01    2.175794e+03
  1.370769e+01    2.166857e+03
  1.376070e+01    2.154550e+03
  1.381370e+01    2.145719e+03
  1.386671e+01    2.135733e+03
  1.391971e+01    2.129094e+03
  1.397271e+01    2.125654e+03
  1.402572e+01    2.121710e+03
  1.407872e+01    2.114491e+03
  1.413173e+01    2.106835e+03
  1.418473e+01    2.105338e+03
  1.423773e+01    2.099422e+03
  1.429074e+01    2.091704e+03
  1.434374e+01    2.090640e+03
  1.439675e+01    2.082399e+03
  1.444975e+01    2.080392e+03
  1.450276e+01    2.076242e+03
  1.455576e+01    2.070668e+03
  1.460876e+01    2.071343e+03
  1.466177e+01    2.068565e+03
  1.471477e+01    2.067535e+03
  1.476778e+01    2.070849e+03
  1.482078e+01    2.069120e+03
  1.487378e+01    2.065738e+03
  1.492679e+01    2.060480e+03
  1.497979e+01    2.056195e+03
  1.503280e+01    2.053427e+03
  1.508580e+01    2.052143e+03
  1.513880e+01    2.049402e+03
  1.519181e+01    2.055588e+03
  1.524481e+01    2.076550e+03
  1.529782e+01    2.057060e+03
  1.535082e+01    2.047561e+03
  1.540382e+01    2.043572e+03
  1.545683e+01    2.033979e+03
  1.550983e+01    2.036217e+03
  1.556284e+01    2.030247e+03
  1.561584e+01    2.026286e+03
  1.566885e+01    2.020825e+03
  1.572185e+01    2.019177e+03
  1.577485e+01    2.016376e+03
  1.582786e+01    2.011145e+03
  1.588086e+01    2.010135e+03
  1.593387e+01    2.008734e+03
  1.598687e+01    2.003809e+03
  1.603987e+01    1.996079e+03
  1.609288e+01    1.988702e+03
  1.614588e+01    1.982371e+03
  1.619889e+01    1.984115e+03
  1.625189e+01    1.988697e+03
  1.630489e+01    1.983756e+03
  1.635790e+01    1.980253e+03
  1.641090e+01    1.975689e+03
  1.646391e+01    1.970341e+03
  1.651691e+01    1.968421e+03
  1.656992e+01    1.962298e+03
  1.662292e+01    1.957310e+03
  1.667592e+01    1.958714e+03
  1.672893e+01    1.956479e+03
  1.678193e+01    1.956391e+03
  1.683494e+01    1.951881e+03
  1.688794e+01    1.950338e+03
  1.694094e+01    1.948391e+03
  1.699395e+01    1.945343e+03
  1.704695e+01    1.942149e+03
  1.709996e+01    1.939212e+03
  1.715296e+01    1.933643e+03
  1.720596e+01    1.930514e+03
  1.725897e+01    1.926489e+03
  1.731197e+01    1.923454e+03
  1.736498e+01    1.917375e+03
  1.741798e+01    1.916413e+03
  1.747098e+01    1.915597e+03
  1.752399e+01    1.912342e+03
  1.757699e+01    1.908267e+03
  1.763000e+01    1.902570e+03
  1.768300e+01    1.899242e+03
  1.773601e+01    1.895663e+03
  1.778901e+01    1.889966e+03
  1.784201e+01    1.882817e+03
  1.789502e+01    1.883441e+03
  1.794802e+01    1.875549e+03
  1.800103e+01    1.875580e+03
  1.805403e+01    1.872896e+03
  1.810703e+01    1.868178e+03
  1.816004e+01    1.864407e+03
  1.821304e+01    1.862003e+03
  1.826605e+01    1.865086e+03
  1.831905e+01    1.854827e+03
  1.837205e+01    1.852330e+03
  1.842506e+01    1.849814e+03
  1.847806e+01    1.847365e+03
  1.853107e+01    1.846695e+03
  1.858407e+01    1.845008e+03
  1.863708e+01    1.845090e+03
  1.869008e+01    1.858671e+03
  1.874308e+01    1.847697e+03
  1.879609e+01    1.842577e+03
  1.884909e+01    1.839268e+03
  1.890210e+01    1.836287e+03
  1.895510e+01    1.831472e+03
  1.900810e+01    1.828241e+03
  1.906111e+01    1.820603e+03
  1.911411e+01    1.814060e+03
  1.916712e+01    1.811935e+03
  1.922012e+01    1.807038e+03
  1.927312e+01    1.800187e+03
  1.932613e+01    1.797697e+03
  1.937913e+01    1.791420e+03
  1.943214e+01    1.788048e+03
  1.948514e+01    1.784389e+03
  1.953814e+01    1.779444e+03
  1.959115e+01    1.775418e+03
  1.964415e+01    1.768667e+03
  1.969716e+01    1.766452e+03
  1.975016e+01    1.761174e+03
  1.980317e+01    1.756977e+03
  1.985617e+01    1.751628e+03
  1.990917e+01    1.746882e+03
  1.996218e+01    1.742413e+03
  2.001518e+01    1.738431e+03
  2.006819e+01    1.730396e+03
  2.012119e+01    1.724101e+03
  2.017419e+01    1.720873e+03
  2.022720e+01    1.713905e+03
  2.028020e+01    1.706883e+03
  2.033321e+01    1.702077e+03
  2.038621e+01    1.695987e+03
  2.043921e+01    1.692072e+03
  2.049222e+01    1.686891e+03
  2.054522e+01    1.681211e+03
  2.059823e+01    1.676245e+03
  2.065123e+01    1.671130e+03
  2.070424e+01    1.667600e+03
  2.075724e+01    1.666696e+03
  2.081024e+01    1.673635e+03
  2.086325e+01    1.664319e+03
  2.091625e+01    1.648836e+03
  2.096926e+01    1.636088e+03
  2.102226e+01    1.624486e+03
  2.107526e+01    1.614164e+03
  2.112827e+01    1.605854e+03
  2.118127e+01    1.596506e+03
  2.123428e+01    1.587212e+03
  2.128728e+01    1.579921e+03
  2.134028e+01    1.570085e+03
  2.139329e+01    1.560714e+03
  2.144629e+01    1.549769e+03
  2.149930e+01    1.542368e+03
  2.155230e+01    1.534495e+03
  2.160530e+01    1.525140e+03
  2.165831e+01    1.516125e+03
  2.171131e+01    1.508454e+03
  2.176432e+01    1.503724e+03
  2.181732e+01    1.495013e+03
  2.187033e+01    1.484301e+03
  2.192333e+01    1.477515e+03
  2.197633e+01    1.468736e+03
  2.202934e+01    1.459384e+03
  2.208234e+01    1.450644e+03
  2.213535e+01    1.441829e+03
  2.218835e+01    1.433793e+03
  2.224135e+01    1.425814e+03
  2.229436e+01    1.417040e+03
  2.234736e+01    1.410647e+03
  2.240037e+01    1.399686e+03
  2.245337e+01    1.392651e+03
  2.250637e+01    1.386308e+03
  2.255938e+01    1.377597e+03
  2.261238e+01    1.380414e+03
  2.266539e+01    1.379197e+03
  2.271839e+01    1.380793e+03
  2.277140e+01    1.379815e+03
  2.282440e+01    1.379716e+03
  2.287740e+01    1.375248e+03
  2.293041e+01    1.376786e+03
  2.298341e+01    1.374879e+03
  2.303642e+01    1.374943e+03
  2.308942e+01    1.372911e+03
  2.314242e+01    1.369474e+03
  2.319543e+01    1.365714e+03
  2.324843e+01    1.361440e+03
  2.330144e+01    1.360633e+03
  2.335444e+01    1.357820e+03
  2.340744e+01    1.357976e+03
  2.346045e+01    1.357824e+03
  2.351345e+01    1.354087e+03
  2.356646e+01    1.347921e+03
  2.361946e+01    1.349801e+03
  2.367246e+01    1.349021e+03
  2.372547e+01    1.342090e+03
  2.377847e+01    1.338954e+03
  2.383148e+01    1.334074e+03
  2.388448e+01    1.331452e+03
  2.393749e+01    1.327655e+03
  2.399049e+01    1.324741e+03
  2.404349e+01    1.324438e+03
  2.409650e+01    1.320127e+03
  2.414950e+01    1.314161e+03
  2.420251e+01    1.309553e+03
  2.425551e+01    1.301844e+03
  2.430851e+01    1.299252e+03
  2.436152e+01    1.292394e+03
  2.441452e+01    1.287001e+03
  2.446753e+01    1.279884e+03
  2.452053e+01    1.273488e+03
  2.457353e+01    1.269453e+03
  2.462654e+01    1.268770e+03
  2.467954e+01    1.257959e+03
  2.473255e+01    1.249727e+03
  2.478555e+01    1.237582e+03
  2.483855e+01    1.228653e+03
  2.489156e+01    1.219845e+03
  2.494456e+01    1.212312e+03
  2.499757e+01    1.203842e+03
  2.505057e+01    1.195000e+03
  2.510358e+01    1.186677e+03
  2.515658e+01    1.184297e+03
  2.520958e+01    1.177663e+03
  2.526259e+01    1.170983e+03
  2.531559e+01    1.161238e+03
  2.536860e+01    1.157403e+03
  2.542160e+01    1.150840e+03
  2.547460e+01    1.142699e+03
  2.552761e+01    1.135378e+03
  2.558061e+01    1.131558e+03
  2.563362e+01    1.127922e+03
  2.568662e+01    1.121304e+03
  2.573962e+01    1.113552e+03
  2.579263e+01    1.101271e+03
  2.584563e+01    1.098139e+03
  2.589864e+01    1.090859e+03
  2.595164e+01    1.086295e+03
  2.600465e+01    1.089868e+03
  2.605765e+01    1.082004e+03
  2.611065e+01    1.079947e+03
  2.616366e+01    1.079615e+03
  2.621666e+01    1.068679e+03
  2.626967e+01    1.061142e+03
  2.632267e+01    1.060300e+03
  2.637567e+01    1.057039e+03
  2.642868e+01    1.031723e+03
  2.648168e+01    1.015883e+03
