# == pyFAI calibration ==
# Distance Sample to Detector: 0.2945755399789714 m
# PONI: 2.880e-01, 2.450e-01 m
# Rotations: -0.007291 -0.010887 -0.000000 rad
# 
# == Fit2d calibration ==
# Distance Sample-beamCenter: 294.601 mm
# Center: x=1437.174, y=1655.617 pix
# Tilt: 0.751 deg  TiltPlanRot: -56.193 deg
# 
# Detector Pilatus CdTe 2M	 PixelSize= 1.720e-04, 1.720e-04 m
#    Detector has a mask: True 
#    Detector has a dark current: False 
#    detector has a flat field: False 
# 
# Wavelength: 2.0732883349524408e-11 m
# Mask applied: from detector
# Dark current applied: False
# Flat field applied: False
# Polarization factor: 0.9
# Normalization factor: 1.0
# --> /gpfs/current/raw/FMue_2/FMue_2_20231024_120911_00159.dat
#        q_A^-1             I 
  3.263564e-02             nan
  8.563974e-02             nan
  1.386438e-01             nan
  1.916479e-01             nan
  2.446520e-01    3.891227e+04
  2.976561e-01    3.003648e+04
  3.506602e-01    1.595287e+04
  4.036643e-01    1.116680e+04
  4.566684e-01    9.544020e+03
  5.096725e-01    9.133235e+03
  5.626766e-01    8.847180e+03
  6.156807e-01    8.503206e+03
  6.686848e-01    8.321309e+03
  7.216890e-01    8.361810e+03
  7.746931e-01    8.353430e+03
  8.276972e-01    8.420592e+03
  8.807013e-01    8.481091e+03
  9.337054e-01    8.622411e+03
  9.867095e-01    8.767727e+03
  1.039714e+00    9.033201e+03
  1.092718e+00    9.344062e+03
  1.145722e+00    9.828243e+03
  1.198726e+00    1.041469e+04
  1.251730e+00    1.111645e+04
  1.304734e+00    1.200762e+04
  1.357738e+00    1.287019e+04
  1.410742e+00    1.356880e+04
  1.463746e+00    1.391281e+04
  1.516750e+00    1.385900e+04
  1.569755e+00    1.338656e+04
  1.622759e+00    1.272856e+04
  1.675763e+00    1.188840e+04
  1.728767e+00    1.099628e+04
  1.781771e+00    1.020111e+04
  1.834775e+00    9.533558e+03
  1.887779e+00    8.979479e+03
  1.940783e+00    8.620737e+03
  1.993787e+00    8.324687e+03
  2.046791e+00    8.152851e+03
  2.099796e+00    8.097714e+03
  2.152800e+00    8.119411e+03
  2.205804e+00    8.201623e+03
  2.258808e+00    8.276243e+03
  2.311812e+00    8.306947e+03
  2.364816e+00    8.378703e+03
  2.417820e+00    8.702662e+03
  2.470824e+00    9.439722e+03
  2.523828e+00    1.101657e+04
  2.576832e+00    1.296330e+04
  2.629837e+00    1.105363e+04
  2.682841e+00    8.501044e+03
  2.735845e+00    7.772636e+03
  2.788849e+00    7.131880e+03
  2.841853e+00    6.815538e+03
  2.894857e+00    7.779404e+03
  2.947861e+00    1.124301e+04
  3.000865e+00    1.298828e+04
  3.053869e+00    9.574908e+03
  3.106874e+00    8.054887e+03
  3.159878e+00    8.616844e+03
  3.212882e+00    7.908759e+03
  3.265886e+00    6.043743e+03
  3.318890e+00    5.107537e+03
  3.371894e+00    4.862259e+03
  3.424898e+00    4.766429e+03
  3.477902e+00    4.733951e+03
  3.530906e+00    4.699645e+03
  3.583910e+00    4.678906e+03
  3.636915e+00    4.707748e+03
  3.689919e+00    4.753926e+03
  3.742923e+00    4.828363e+03
  3.795927e+00    4.946338e+03
  3.848931e+00    5.092436e+03
  3.901935e+00    5.281589e+03
  3.954939e+00    5.508654e+03
  4.007943e+00    5.854469e+03
  4.060947e+00    6.351447e+03
  4.113951e+00    7.159391e+03
  4.166956e+00    8.907630e+03
  4.219960e+00    1.107158e+04
  4.272964e+00    9.573874e+03
  4.325968e+00    7.305490e+03
  4.378972e+00    7.338642e+03
  4.431976e+00    9.377897e+03
  4.484980e+00    1.072503e+04
  4.537984e+00    8.685219e+03
  4.590988e+00    6.498105e+03
  4.643992e+00    5.684188e+03
  4.696997e+00    5.475010e+03
  4.750001e+00    5.427542e+03
  4.803005e+00    5.498223e+03
  4.856009e+00    5.778996e+03
  4.909013e+00    6.373964e+03
  4.962017e+00    6.670292e+03
  5.015021e+00    6.099832e+03
  5.068025e+00    5.711003e+03
  5.121029e+00    5.862980e+03
  5.174033e+00    5.998444e+03
  5.227038e+00    5.396561e+03
  5.280042e+00    4.729253e+03
  5.333046e+00    4.395648e+03
  5.386050e+00    4.223387e+03
  5.439054e+00    4.210154e+03
  5.492058e+00    4.194630e+03
  5.545062e+00    3.907696e+03
  5.598066e+00    3.657835e+03
  5.651070e+00    3.557611e+03
  5.704074e+00    3.527223e+03
  5.757079e+00    3.534680e+03
  5.810083e+00    3.573006e+03
  5.863087e+00    3.672040e+03
  5.916091e+00    3.877534e+03
  5.969095e+00    4.088373e+03
  6.022099e+00    4.063139e+03
  6.075103e+00    3.931323e+03
  6.128107e+00    3.841692e+03
  6.181111e+00    3.808872e+03
  6.234115e+00    3.875027e+03
  6.287120e+00    4.002951e+03
  6.340124e+00    4.055473e+03
  6.393128e+00    4.056770e+03
  6.446132e+00    4.072497e+03
  6.499136e+00    4.125293e+03
  6.552140e+00    4.058578e+03
  6.605144e+00    4.066327e+03
  6.658148e+00    4.190445e+03
  6.711152e+00    4.044888e+03
  6.764156e+00    3.718556e+03
  6.817161e+00    3.505280e+03
  6.870165e+00    3.377542e+03
  6.923169e+00    3.299951e+03
  6.976173e+00    3.318797e+03
  7.029177e+00    3.380273e+03
  7.082181e+00    3.429376e+03
  7.135185e+00    3.414237e+03
  7.188189e+00    3.408869e+03
  7.241193e+00    3.499777e+03
  7.294197e+00    3.667306e+03
  7.347202e+00    3.617918e+03
  7.400206e+00    3.421177e+03
  7.453210e+00    3.304201e+03
  7.506214e+00    3.277236e+03
  7.559218e+00    3.276240e+03
  7.612222e+00    3.321317e+03
  7.665226e+00    3.467211e+03
  7.718230e+00    3.721137e+03
  7.771234e+00    3.757035e+03
  7.824239e+00    3.483594e+03
  7.877243e+00    3.242278e+03
  7.930247e+00    3.113310e+03
  7.983251e+00    3.066469e+03
  8.036255e+00    3.056870e+03
  8.089259e+00    3.058705e+03
  8.142263e+00    3.070828e+03
  8.195267e+00    3.079118e+03
  8.248271e+00    3.080115e+03
  8.301275e+00    3.071744e+03
  8.354280e+00    3.079192e+03
  8.407284e+00    3.097724e+03
  8.460288e+00    3.093676e+03
  8.513292e+00    3.052522e+03
  8.566296e+00    3.030517e+03
  8.619300e+00    3.020469e+03
  8.672304e+00    3.027503e+03
  8.725308e+00    3.056306e+03
  8.778312e+00    3.086516e+03
  8.831316e+00    3.112072e+03
  8.884321e+00    3.123647e+03
  8.937325e+00    3.110305e+03
  8.990329e+00    3.031490e+03
  9.043333e+00    2.910655e+03
  9.096337e+00    2.822373e+03
  9.149341e+00    2.780034e+03
  9.202345e+00    2.760344e+03
  9.255349e+00    2.751309e+03
  9.308353e+00    2.750559e+03
  9.361357e+00    2.762893e+03
  9.414362e+00    2.774213e+03
  9.467366e+00    2.775339e+03
  9.520370e+00    2.735378e+03
  9.573374e+00    2.695860e+03
  9.626378e+00    2.674435e+03
  9.679382e+00    2.671501e+03
  9.732386e+00    2.676663e+03
  9.785390e+00    2.682254e+03
  9.838394e+00    2.680093e+03
  9.891398e+00    2.672259e+03
  9.944403e+00    2.655264e+03
  9.997407e+00    2.628930e+03
  1.005041e+01    2.597465e+03
  1.010341e+01    2.554573e+03
  1.015642e+01    2.529036e+03
  1.020942e+01    2.519138e+03
  1.026243e+01    2.510754e+03
  1.031543e+01    2.521071e+03
  1.036844e+01    2.539140e+03
  1.042144e+01    2.538844e+03
  1.047444e+01    2.541191e+03
  1.052745e+01    2.536212e+03
  1.058045e+01    2.542977e+03
  1.063346e+01    2.543082e+03
  1.068646e+01    2.542232e+03
  1.073946e+01    2.523007e+03
  1.079247e+01    2.505711e+03
  1.084547e+01    2.489140e+03
  1.089848e+01    2.481508e+03
  1.095148e+01    2.486206e+03
  1.100448e+01    2.481921e+03
  1.105749e+01    2.482345e+03
  1.111049e+01    2.486653e+03
  1.116350e+01    2.479466e+03
  1.121650e+01    2.465070e+03
  1.126951e+01    2.444079e+03
  1.132251e+01    2.430876e+03
  1.137551e+01    2.419820e+03
  1.142852e+01    2.416307e+03
  1.148152e+01    2.401733e+03
  1.153453e+01    2.388205e+03
  1.158753e+01    2.376713e+03
  1.164053e+01    2.371960e+03
  1.169354e+01    2.374556e+03
  1.174654e+01    2.403503e+03
  1.179955e+01    2.403161e+03
  1.185255e+01    2.401443e+03
  1.190555e+01    2.386770e+03
  1.195856e+01    2.373983e+03
  1.201156e+01    2.365591e+03
  1.206457e+01    2.356868e+03
  1.211757e+01    2.361584e+03
  1.217057e+01    2.365323e+03
  1.222358e+01    2.365976e+03
  1.227658e+01    2.364642e+03
  1.232959e+01    2.362513e+03
  1.238259e+01    2.350333e+03
  1.243560e+01    2.350927e+03
  1.248860e+01    2.345690e+03
  1.254160e+01    2.345715e+03
  1.259461e+01    2.346532e+03
  1.264761e+01    2.338819e+03
  1.270062e+01    2.328388e+03
  1.275362e+01    2.319404e+03
  1.280662e+01    2.311809e+03
  1.285963e+01    2.303626e+03
  1.291263e+01    2.294104e+03
  1.296564e+01    2.280958e+03
  1.301864e+01    2.273627e+03
  1.307164e+01    2.262304e+03
  1.312465e+01    2.248453e+03
  1.317765e+01    2.242879e+03
  1.323066e+01    2.223291e+03
  1.328366e+01    2.216447e+03
  1.333667e+01    2.213658e+03
  1.338967e+01    2.209886e+03
  1.344267e+01    2.222793e+03
  1.349568e+01    2.217160e+03
  1.354868e+01    2.211708e+03
  1.360169e+01    2.203721e+03
  1.365469e+01    2.190597e+03
  1.370769e+01    2.180897e+03
  1.376070e+01    2.166771e+03
  1.381370e+01    2.158253e+03
  1.386671e+01    2.149394e+03
  1.391971e+01    2.143193e+03
  1.397271e+01    2.138934e+03
  1.402572e+01    2.133732e+03
  1.407872e+01    2.127455e+03
  1.413173e+01    2.121078e+03
  1.418473e+01    2.117965e+03
  1.423773e+01    2.112628e+03
  1.429074e+01    2.104600e+03
  1.434374e+01    2.102156e+03
  1.439675e+01    2.096493e+03
  1.444975e+01    2.093288e+03
  1.450276e+01    2.090905e+03
  1.455576e+01    2.086754e+03
  1.460876e+01    2.084118e+03
  1.466177e+01    2.081838e+03
  1.471477e+01    2.081844e+03
  1.476778e+01    2.083699e+03
  1.482078e+01    2.083999e+03
  1.487378e+01    2.078234e+03
  1.492679e+01    2.072556e+03
  1.497979e+01    2.067368e+03
  1.503280e+01    2.065456e+03
  1.508580e+01    2.064451e+03
  1.513880e+01    2.061705e+03
  1.519181e+01    2.065453e+03
  1.524481e+01    2.090050e+03
  1.529782e+01    2.072780e+03
  1.535082e+01    2.060545e+03
  1.540382e+01    2.054318e+03
  1.545683e+01    2.045794e+03
  1.550983e+01    2.050701e+03
  1.556284e+01    2.045766e+03
  1.561584e+01    2.039454e+03
  1.566885e+01    2.034167e+03
  1.572185e+01    2.032188e+03
  1.577485e+01    2.030354e+03
  1.582786e+01    2.023470e+03
  1.588086e+01    2.021228e+03
  1.593387e+01    2.020917e+03
  1.598687e+01    2.015784e+03
  1.603987e+01    2.008186e+03
  1.609288e+01    2.001026e+03
  1.614588e+01    1.994190e+03
  1.619889e+01    1.997313e+03
  1.625189e+01    1.999228e+03
  1.630489e+01    1.996298e+03
  1.635790e+01    1.993064e+03
  1.641090e+01    1.990176e+03
  1.646391e+01    1.983419e+03
  1.651691e+01    1.980556e+03
  1.656992e+01    1.975001e+03
  1.662292e+01    1.970099e+03
  1.667592e+01    1.970752e+03
  1.672893e+01    1.967519e+03
  1.678193e+01    1.969372e+03
  1.683494e+01    1.962876e+03
  1.688794e+01    1.963600e+03
  1.694094e+01    1.961503e+03
  1.699395e+01    1.958408e+03
  1.704695e+01    1.953879e+03
  1.709996e+01    1.951366e+03
  1.715296e+01    1.946113e+03
  1.720596e+01    1.943435e+03
  1.725897e+01    1.939692e+03
  1.731197e+01    1.936725e+03
  1.736498e+01    1.930975e+03
  1.741798e+01    1.930484e+03
  1.747098e+01    1.928034e+03
  1.752399e+01    1.926011e+03
  1.757699e+01    1.920064e+03
  1.763000e+01    1.914507e+03
  1.768300e+01    1.910621e+03
  1.773601e+01    1.907682e+03
  1.778901e+01    1.903874e+03
  1.784201e+01    1.896577e+03
  1.789502e+01    1.896362e+03
  1.794802e+01    1.889495e+03
  1.800103e+01    1.887561e+03
  1.805403e+01    1.884463e+03
  1.810703e+01    1.879594e+03
  1.816004e+01    1.875343e+03
  1.821304e+01    1.873469e+03
  1.826605e+01    1.877098e+03
  1.831905e+01    1.867840e+03
  1.837205e+01    1.864307e+03
  1.842506e+01    1.860809e+03
  1.847806e+01    1.858919e+03
  1.853107e+01    1.858359e+03
  1.858407e+01    1.854935e+03
  1.863708e+01    1.856995e+03
  1.869008e+01    1.871589e+03
  1.874308e+01    1.861462e+03
  1.879609e+01    1.855424e+03
  1.884909e+01    1.851364e+03
  1.890210e+01    1.849439e+03
  1.895510e+01    1.841682e+03
  1.900810e+01    1.839293e+03
  1.906111e+01    1.831968e+03
  1.911411e+01    1.825745e+03
  1.916712e+01    1.822807e+03
  1.922012e+01    1.819285e+03
  1.927312e+01    1.811369e+03
  1.932613e+01    1.809431e+03
  1.937913e+01    1.802569e+03
  1.943214e+01    1.798839e+03
  1.948514e+01    1.795261e+03
  1.953814e+01    1.789470e+03
  1.959115e+01    1.787272e+03
  1.964415e+01    1.780663e+03
  1.969716e+01    1.778150e+03
  1.975016e+01    1.772583e+03
  1.980317e+01    1.769846e+03
  1.985617e+01    1.765625e+03
  1.990917e+01    1.759665e+03
  1.996218e+01    1.753086e+03
  2.001518e+01    1.748325e+03
  2.006819e+01    1.741718e+03
  2.012119e+01    1.736271e+03
  2.017419e+01    1.731979e+03
  2.022720e+01    1.725772e+03
  2.028020e+01    1.718184e+03
  2.033321e+01    1.712340e+03
  2.038621e+01    1.707008e+03
  2.043921e+01    1.703111e+03
  2.049222e+01    1.698060e+03
  2.054522e+01    1.692718e+03
  2.059823e+01    1.688276e+03
  2.065123e+01    1.682565e+03
  2.070424e+01    1.678931e+03
  2.075724e+01    1.676580e+03
  2.081024e+01    1.685840e+03
  2.086325e+01    1.675004e+03
  2.091625e+01    1.660091e+03
  2.096926e+01    1.645848e+03
  2.102226e+01    1.634475e+03
  2.107526e+01    1.626212e+03
  2.112827e+01    1.615496e+03
  2.118127e+01    1.607926e+03
  2.123428e+01    1.596412e+03
  2.128728e+01    1.589632e+03
  2.134028e+01    1.579786e+03
  2.139329e+01    1.569914e+03
  2.144629e+01    1.560083e+03
  2.149930e+01    1.553040e+03
  2.155230e+01    1.544167e+03
  2.160530e+01    1.536749e+03
  2.165831e+01    1.525983e+03
  2.171131e+01    1.519486e+03
  2.176432e+01    1.514421e+03
  2.181732e+01    1.504680e+03
  2.187033e+01    1.494199e+03
  2.192333e+01    1.489330e+03
  2.197633e+01    1.478541e+03
  2.202934e+01    1.471717e+03
  2.208234e+01    1.461333e+03
  2.213535e+01    1.452407e+03
  2.218835e+01    1.443911e+03
  2.224135e+01    1.434862e+03
  2.229436e+01    1.427938e+03
  2.234736e+01    1.420820e+03
  2.240037e+01    1.409515e+03
  2.245337e+01    1.401244e+03
  2.250637e+01    1.395527e+03
  2.255938e+01    1.387258e+03
  2.261238e+01    1.388913e+03
  2.266539e+01    1.389064e+03
  2.271839e+01    1.391546e+03
  2.277140e+01    1.390574e+03
  2.282440e+01    1.389036e+03
  2.287740e+01    1.385842e+03
  2.293041e+01    1.385433e+03
  2.298341e+01    1.384596e+03
  2.303642e+01    1.384291e+03
  2.308942e+01    1.381592e+03
  2.314242e+01    1.378672e+03
  2.319543e+01    1.376919e+03
  2.324843e+01    1.371027e+03
  2.330144e+01    1.369372e+03
  2.335444e+01    1.366573e+03
  2.340744e+01    1.366826e+03
  2.346045e+01    1.367056e+03
  2.351345e+01    1.362005e+03
  2.356646e+01    1.359734e+03
  2.361946e+01    1.357403e+03
  2.367246e+01    1.357294e+03
  2.372547e+01    1.352856e+03
  2.377847e+01    1.349070e+03
  2.383148e+01    1.344218e+03
  2.388448e+01    1.338762e+03
  2.393749e+01    1.338343e+03
  2.399049e+01    1.333773e+03
  2.404349e+01    1.331014e+03
  2.409650e+01    1.328327e+03
  2.414950e+01    1.323189e+03
  2.420251e+01    1.318126e+03
  2.425551e+01    1.311942e+03
  2.430851e+01    1.304930e+03
  2.436152e+01    1.302170e+03
  2.441452e+01    1.294454e+03
  2.446753e+01    1.287794e+03
  2.452053e+01    1.280754e+03
  2.457353e+01    1.277822e+03
  2.462654e+01    1.277824e+03
  2.467954e+01    1.265296e+03
  2.473255e+01    1.255318e+03
  2.478555e+01    1.246341e+03
  2.483855e+01    1.236749e+03
  2.489156e+01    1.227230e+03
  2.494456e+01    1.220256e+03
  2.499757e+01    1.210626e+03
  2.505057e+01    1.200278e+03
  2.510358e+01    1.194545e+03
  2.515658e+01    1.187920e+03
  2.520958e+01    1.184646e+03
  2.526259e+01    1.177117e+03
  2.531559e+01    1.171933e+03
  2.536860e+01    1.164052e+03
  2.542160e+01    1.159362e+03
  2.547460e+01    1.152271e+03
  2.552761e+01    1.140703e+03
  2.558061e+01    1.140678e+03
  2.563362e+01    1.137690e+03
  2.568662e+01    1.124673e+03
  2.573962e+01    1.120212e+03
  2.579263e+01    1.110812e+03
  2.584563e+01    1.103189e+03
  2.589864e+01    1.101083e+03
  2.595164e+01    1.097349e+03
  2.600465e+01    1.091188e+03
  2.605765e+01    1.092609e+03
  2.611065e+01    1.087816e+03
  2.616366e+01    1.085741e+03
  2.621666e+01    1.081225e+03
  2.626967e+01    1.068720e+03
  2.632267e+01    1.071040e+03
  2.637567e+01    1.059002e+03
  2.642868e+01    1.041232e+03
  2.648168e+01    1.014111e+03
