# == pyFAI calibration ==
# Distance Sample to Detector: 0.2945755399789714 m
# PONI: 2.880e-01, 2.450e-01 m
# Rotations: -0.007291 -0.010887 -0.000000 rad
# 
# == Fit2d calibration ==
# Distance Sample-beamCenter: 294.601 mm
# Center: x=1437.174, y=1655.617 pix
# Tilt: 0.751 deg  TiltPlanRot: -56.193 deg
# 
# Detector Pilatus CdTe 2M	 PixelSize= 1.720e-04, 1.720e-04 m
#    Detector has a mask: True 
#    Detector has a dark current: False 
#    detector has a flat field: False 
# 
# Wavelength: 2.0732883349524408e-11 m
# Mask applied: from detector
# Dark current applied: False
# Flat field applied: False
# Polarization factor: 0.9
# Normalization factor: 1.0
# --> /gpfs/current/raw/FMue_2/FMue_2_20231024_120911_00325.dat
#        q_A^-1             I 
  3.263564e-02             nan
  8.563974e-02             nan
  1.386438e-01             nan
  1.916479e-01             nan
  2.446520e-01    3.860230e+04
  2.976561e-01    2.983237e+04
  3.506602e-01    1.596303e+04
  4.036643e-01    1.115965e+04
  4.566684e-01    9.498458e+03
  5.096725e-01    9.044103e+03
  5.626766e-01    8.730445e+03
  6.156807e-01    8.373960e+03
  6.686848e-01    8.199893e+03
  7.216890e-01    8.259510e+03
  7.746931e-01    8.261020e+03
  8.276972e-01    8.339479e+03
  8.807013e-01    8.394696e+03
  9.337054e-01    8.549753e+03
  9.867095e-01    8.696804e+03
  1.039714e+00    8.951416e+03
  1.092718e+00    9.280742e+03
  1.145722e+00    9.771410e+03
  1.198726e+00    1.035660e+04
  1.251730e+00    1.105233e+04
  1.304734e+00    1.195132e+04
  1.357738e+00    1.282367e+04
  1.410742e+00    1.351716e+04
  1.463746e+00    1.386010e+04
  1.516750e+00    1.380361e+04
  1.569755e+00    1.330946e+04
  1.622759e+00    1.265738e+04
  1.675763e+00    1.178667e+04
  1.728767e+00    1.089078e+04
  1.781771e+00    1.008578e+04
  1.834775e+00    9.414244e+03
  1.887779e+00    8.835168e+03
  1.940783e+00    8.465981e+03
  1.993787e+00    8.139780e+03
  2.046791e+00    7.942528e+03
  2.099796e+00    7.878881e+03
  2.152800e+00    7.879982e+03
  2.205804e+00    7.915565e+03
  2.258808e+00    7.913972e+03
  2.311812e+00    7.878019e+03
  2.364816e+00    7.898466e+03
  2.417820e+00    8.163921e+03
  2.470824e+00    8.756522e+03
  2.523828e+00    9.745337e+03
  2.576832e+00    1.049234e+04
  2.629837e+00    9.487083e+03
  2.682841e+00    8.087231e+03
  2.735845e+00    7.544477e+03
  2.788849e+00    6.923736e+03
  2.841853e+00    6.623354e+03
  2.894857e+00    7.205252e+03
  2.947861e+00    9.066603e+03
  3.000865e+00    1.186653e+04
  3.053869e+00    1.303765e+04
  3.106874e+00    1.120310e+04
  3.159878e+00    9.890713e+03
  3.212882e+00    8.478355e+03
  3.265886e+00    6.492652e+03
  3.318890e+00    5.619686e+03
  3.371894e+00    5.496152e+03
  3.424898e+00    5.741972e+03
  3.477902e+00    6.299731e+03
  3.530906e+00    6.293388e+03
  3.583910e+00    5.559305e+03
  3.636915e+00    5.057152e+03
  3.689919e+00    4.904614e+03
  3.742923e+00    4.908591e+03
  3.795927e+00    4.980219e+03
  3.848931e+00    5.081842e+03
  3.901935e+00    5.250025e+03
  3.954939e+00    5.467312e+03
  4.007943e+00    5.777830e+03
  4.060947e+00    6.163046e+03
  4.113951e+00    6.623286e+03
  4.166956e+00    7.328423e+03
  4.219960e+00    8.081350e+03
  4.272964e+00    7.628643e+03
  4.325968e+00    6.942572e+03
  4.378972e+00    7.424890e+03
  4.431976e+00    9.512016e+03
  4.484980e+00    1.055117e+04
  4.537984e+00    8.354801e+03
  4.590988e+00    6.301031e+03
  4.643992e+00    5.564538e+03
  4.696997e+00    5.367682e+03
  4.750001e+00    5.326933e+03
  4.803005e+00    5.384855e+03
  4.856009e+00    5.611290e+03
  4.909013e+00    6.131236e+03
  4.962017e+00    6.747119e+03
  5.015021e+00    6.540922e+03
  5.068025e+00    5.894726e+03
  5.121029e+00    5.619991e+03
  5.174033e+00    5.450103e+03
  5.227038e+00    5.084917e+03
  5.280042e+00    4.708923e+03
  5.333046e+00    4.459521e+03
  5.386050e+00    4.311231e+03
  5.439054e+00    4.312353e+03
  5.492058e+00    4.276544e+03
  5.545062e+00    3.991611e+03
  5.598066e+00    3.783439e+03
  5.651070e+00    3.732226e+03
  5.704074e+00    3.803422e+03
  5.757079e+00    4.077286e+03
  5.810083e+00    4.579764e+03
  5.863087e+00    4.650863e+03
  5.916091e+00    4.284014e+03
  5.969095e+00    4.137626e+03
  6.022099e+00    4.139076e+03
  6.075103e+00    4.194897e+03
  6.128107e+00    4.088673e+03
  6.181111e+00    3.885662e+03
  6.234115e+00    3.856785e+03
  6.287120e+00    3.928544e+03
  6.340124e+00    3.919796e+03
  6.393128e+00    3.855737e+03
  6.446132e+00    3.769689e+03
  6.499136e+00    3.728089e+03
  6.552140e+00    3.682697e+03
  6.605144e+00    3.681744e+03
  6.658148e+00    3.693592e+03
  6.711152e+00    3.616797e+03
  6.764156e+00    3.505362e+03
  6.817161e+00    3.406512e+03
  6.870165e+00    3.321604e+03
  6.923169e+00    3.268427e+03
  6.976173e+00    3.311174e+03
  7.029177e+00    3.383147e+03
  7.082181e+00    3.407075e+03
  7.135185e+00    3.345905e+03
  7.188189e+00    3.286693e+03
  7.241193e+00    3.288898e+03
  7.294197e+00    3.336205e+03
  7.347202e+00    3.327601e+03
  7.400206e+00    3.296503e+03
  7.453210e+00    3.281867e+03
  7.506214e+00    3.304890e+03
  7.559218e+00    3.355366e+03
  7.612222e+00    3.476967e+03
  7.665226e+00    3.690230e+03
  7.718230e+00    3.870741e+03
  7.771234e+00    3.818936e+03
  7.824239e+00    3.630384e+03
  7.877243e+00    3.472407e+03
  7.930247e+00    3.287812e+03
  7.983251e+00    3.162739e+03
  8.036255e+00    3.116738e+03
  8.089259e+00    3.099380e+03
  8.142263e+00    3.093901e+03
  8.195267e+00    3.089939e+03
  8.248271e+00    3.078622e+03
  8.301275e+00    3.058941e+03
  8.354280e+00    3.043819e+03
  8.407284e+00    3.036371e+03
  8.460288e+00    3.035094e+03
  8.513292e+00    3.032785e+03
  8.566296e+00    3.062098e+03
  8.619300e+00    3.081302e+03
  8.672304e+00    3.053967e+03
  8.725308e+00    3.020360e+03
  8.778312e+00    2.998554e+03
  8.831316e+00    2.988449e+03
  8.884321e+00    2.991355e+03
  8.937325e+00    2.985115e+03
  8.990329e+00    2.944408e+03
  9.043333e+00    2.886449e+03
  9.096337e+00    2.864753e+03
  9.149341e+00    2.852332e+03
  9.202345e+00    2.800279e+03
  9.255349e+00    2.750664e+03
  9.308353e+00    2.720760e+03
  9.361357e+00    2.707683e+03
  9.414362e+00    2.693770e+03
  9.467366e+00    2.692897e+03
  9.520370e+00    2.671594e+03
  9.573374e+00    2.644594e+03
  9.626378e+00    2.630524e+03
  9.679382e+00    2.624284e+03
  9.732386e+00    2.624750e+03
  9.785390e+00    2.622664e+03
  9.838394e+00    2.623502e+03
  9.891398e+00    2.626771e+03
  9.944403e+00    2.628498e+03
  9.997407e+00    2.611549e+03
  1.005041e+01    2.583226e+03
  1.010341e+01    2.543086e+03
  1.015642e+01    2.521298e+03
  1.020942e+01    2.511754e+03
  1.026243e+01    2.509946e+03
  1.031543e+01    2.532039e+03
  1.036844e+01    2.581347e+03
  1.042144e+01    2.597143e+03
  1.047444e+01    2.590969e+03
  1.052745e+01    2.574377e+03
  1.058045e+01    2.559369e+03
  1.063346e+01    2.530074e+03
  1.068646e+01    2.509763e+03
  1.073946e+01    2.489138e+03
  1.079247e+01    2.476811e+03
  1.084547e+01    2.465007e+03
  1.089848e+01    2.461896e+03
  1.095148e+01    2.461360e+03
  1.100448e+01    2.454116e+03
  1.105749e+01    2.449640e+03
  1.111049e+01    2.451124e+03
  1.116350e+01    2.437375e+03
  1.121650e+01    2.428209e+03
  1.126951e+01    2.410963e+03
  1.132251e+01    2.401735e+03
  1.137551e+01    2.395261e+03
  1.142852e+01    2.392911e+03
  1.148152e+01    2.389783e+03
  1.153453e+01    2.390337e+03
  1.158753e+01    2.386079e+03
  1.164053e+01    2.379485e+03
  1.169354e+01    2.380857e+03
  1.174654e+01    2.401509e+03
  1.179955e+01    2.390022e+03
  1.185255e+01    2.380086e+03
  1.190555e+01    2.365181e+03
  1.195856e+01    2.350927e+03
  1.201156e+01    2.342008e+03
  1.206457e+01    2.331392e+03
  1.211757e+01    2.336651e+03
  1.217057e+01    2.335552e+03
  1.222358e+01    2.336634e+03
  1.227658e+01    2.332313e+03
  1.232959e+01    2.332518e+03
  1.238259e+01    2.326077e+03
  1.243560e+01    2.329859e+03
  1.248860e+01    2.328937e+03
  1.254160e+01    2.334292e+03
  1.259461e+01    2.331447e+03
  1.264761e+01    2.323057e+03
  1.270062e+01    2.310300e+03
  1.275362e+01    2.296966e+03
  1.280662e+01    2.286914e+03
  1.285963e+01    2.278095e+03
  1.291263e+01    2.266223e+03
  1.296564e+01    2.259449e+03
  1.301864e+01    2.253858e+03
  1.307164e+01    2.249245e+03
  1.312465e+01    2.240285e+03
  1.317765e+01    2.236614e+03
  1.323066e+01    2.215743e+03
  1.328366e+01    2.205434e+03
  1.333667e+01    2.199386e+03
  1.338967e+01    2.197024e+03
  1.344267e+01    2.209169e+03
  1.349568e+01    2.204087e+03
  1.354868e+01    2.196572e+03
  1.360169e+01    2.184340e+03
  1.365469e+01    2.169052e+03
  1.370769e+01    2.161021e+03
  1.376070e+01    2.148519e+03
  1.381370e+01    2.142733e+03
  1.386671e+01    2.132949e+03
  1.391971e+01    2.125022e+03
  1.397271e+01    2.123114e+03
  1.402572e+01    2.117927e+03
  1.407872e+01    2.110555e+03
  1.413173e+01    2.104757e+03
  1.418473e+01    2.104167e+03
  1.423773e+01    2.097103e+03
  1.429074e+01    2.091617e+03
  1.434374e+01    2.091042e+03
  1.439675e+01    2.083746e+03
  1.444975e+01    2.082564e+03
  1.450276e+01    2.077276e+03
  1.455576e+01    2.068421e+03
  1.460876e+01    2.066731e+03
  1.466177e+01    2.063217e+03
  1.471477e+01    2.060473e+03
  1.476778e+01    2.063856e+03
  1.482078e+01    2.063385e+03
  1.487378e+01    2.056672e+03
  1.492679e+01    2.053881e+03
  1.497979e+01    2.048686e+03
  1.503280e+01    2.046462e+03
  1.508580e+01    2.044931e+03
  1.513880e+01    2.043242e+03
  1.519181e+01    2.050898e+03
  1.524481e+01    2.073368e+03
  1.529782e+01    2.054930e+03
  1.535082e+01    2.042953e+03
  1.540382e+01    2.037119e+03
  1.545683e+01    2.028344e+03
  1.550983e+01    2.032311e+03
  1.556284e+01    2.028496e+03
  1.561584e+01    2.023494e+03
  1.566885e+01    2.019362e+03
  1.572185e+01    2.016533e+03
  1.577485e+01    2.014001e+03
  1.582786e+01    2.009016e+03
  1.588086e+01    2.007275e+03
  1.593387e+01    2.006680e+03
  1.598687e+01    2.003120e+03
  1.603987e+01    1.995300e+03
  1.609288e+01    1.986842e+03
  1.614588e+01    1.980784e+03
  1.619889e+01    1.981284e+03
  1.625189e+01    1.984173e+03
  1.630489e+01    1.981726e+03
  1.635790e+01    1.977054e+03
  1.641090e+01    1.973157e+03
  1.646391e+01    1.967491e+03
  1.651691e+01    1.965961e+03
  1.656992e+01    1.959715e+03
  1.662292e+01    1.955453e+03
  1.667592e+01    1.954172e+03
  1.672893e+01    1.950515e+03
  1.678193e+01    1.950303e+03
  1.683494e+01    1.944917e+03
  1.688794e+01    1.943246e+03
  1.694094e+01    1.942208e+03
  1.699395e+01    1.935734e+03
  1.704695e+01    1.933459e+03
  1.709996e+01    1.929358e+03
  1.715296e+01    1.923916e+03
  1.720596e+01    1.922889e+03
  1.725897e+01    1.919742e+03
  1.731197e+01    1.916161e+03
  1.736498e+01    1.912225e+03
  1.741798e+01    1.910436e+03
  1.747098e+01    1.910501e+03
  1.752399e+01    1.907230e+03
  1.757699e+01    1.901553e+03
  1.763000e+01    1.896817e+03
  1.768300e+01    1.892341e+03
  1.773601e+01    1.888547e+03
  1.778901e+01    1.883953e+03
  1.784201e+01    1.878081e+03
  1.789502e+01    1.876482e+03
  1.794802e+01    1.869808e+03
  1.800103e+01    1.869261e+03
  1.805403e+01    1.865359e+03
  1.810703e+01    1.859091e+03
  1.816004e+01    1.856241e+03
  1.821304e+01    1.852948e+03
  1.826605e+01    1.855189e+03
  1.831905e+01    1.847747e+03
  1.837205e+01    1.842428e+03
  1.842506e+01    1.841409e+03
  1.847806e+01    1.837320e+03
  1.853107e+01    1.837054e+03
  1.858407e+01    1.835275e+03
  1.863708e+01    1.836083e+03
  1.869008e+01    1.849011e+03
  1.874308e+01    1.839546e+03
  1.879609e+01    1.832459e+03
  1.884909e+01    1.829586e+03
  1.890210e+01    1.826390e+03
  1.895510e+01    1.818101e+03
  1.900810e+01    1.815615e+03
  1.906111e+01    1.807911e+03
  1.911411e+01    1.802420e+03
  1.916712e+01    1.797319e+03
  1.922012e+01    1.794326e+03
  1.927312e+01    1.786284e+03
  1.932613e+01    1.784454e+03
  1.937913e+01    1.777258e+03
  1.943214e+01    1.772952e+03
  1.948514e+01    1.767924e+03
  1.953814e+01    1.763391e+03
  1.959115e+01    1.760046e+03
  1.964415e+01    1.753613e+03
  1.969716e+01    1.750238e+03
  1.975016e+01    1.745882e+03
  1.980317e+01    1.741465e+03
  1.985617e+01    1.736533e+03
  1.990917e+01    1.730659e+03
  1.996218e+01    1.726203e+03
  2.001518e+01    1.722060e+03
  2.006819e+01    1.714278e+03
  2.012119e+01    1.709026e+03
  2.017419e+01    1.705384e+03
  2.022720e+01    1.698402e+03
  2.028020e+01    1.691472e+03
  2.033321e+01    1.686140e+03
  2.038621e+01    1.680840e+03
  2.043921e+01    1.676601e+03
  2.049222e+01    1.672146e+03
  2.054522e+01    1.664843e+03
  2.059823e+01    1.661031e+03
  2.065123e+01    1.655441e+03
  2.070424e+01    1.653666e+03
  2.075724e+01    1.652686e+03
  2.081024e+01    1.657981e+03
  2.086325e+01    1.649045e+03
  2.091625e+01    1.631896e+03
  2.096926e+01    1.618355e+03
  2.102226e+01    1.606924e+03
  2.107526e+01    1.599304e+03
  2.112827e+01    1.586928e+03
  2.118127e+01    1.579290e+03
  2.123428e+01    1.569475e+03
  2.128728e+01    1.560975e+03
  2.134028e+01    1.553143e+03
  2.139329e+01    1.540805e+03
  2.144629e+01    1.530657e+03
  2.149930e+01    1.523915e+03
  2.155230e+01    1.514661e+03
  2.160530e+01    1.507850e+03
  2.165831e+01    1.498060e+03
  2.171131e+01    1.492443e+03
  2.176432e+01    1.487924e+03
  2.181732e+01    1.476313e+03
  2.187033e+01    1.467632e+03
  2.192333e+01    1.462018e+03
  2.197633e+01    1.450276e+03
  2.202934e+01    1.441981e+03
  2.208234e+01    1.434084e+03
  2.213535e+01    1.425388e+03
  2.218835e+01    1.415262e+03
  2.224135e+01    1.408813e+03
  2.229436e+01    1.400456e+03
  2.234736e+01    1.392367e+03
  2.240037e+01    1.383666e+03
  2.245337e+01    1.375401e+03
  2.250637e+01    1.368573e+03
  2.255938e+01    1.360517e+03
  2.261238e+01    1.365203e+03
  2.266539e+01    1.366149e+03
  2.271839e+01    1.365978e+03
  2.277140e+01    1.365173e+03
  2.282440e+01    1.365035e+03
  2.287740e+01    1.362367e+03
  2.293041e+01    1.362991e+03
  2.298341e+01    1.361664e+03
  2.303642e+01    1.360359e+03
  2.308942e+01    1.357293e+03
  2.314242e+01    1.355648e+03
  2.319543e+01    1.352066e+03
  2.324843e+01    1.347226e+03
  2.330144e+01    1.345763e+03
  2.335444e+01    1.343807e+03
  2.340744e+01    1.343505e+03
  2.346045e+01    1.340272e+03
  2.351345e+01    1.337760e+03
  2.356646e+01    1.332241e+03
  2.361946e+01    1.334604e+03
  2.367246e+01    1.332575e+03
  2.372547e+01    1.328337e+03
  2.377847e+01    1.323045e+03
  2.383148e+01    1.317258e+03
  2.388448e+01    1.313853e+03
  2.393749e+01    1.312902e+03
  2.399049e+01    1.308326e+03
  2.404349e+01    1.308311e+03
  2.409650e+01    1.302147e+03
  2.414950e+01    1.295995e+03
  2.420251e+01    1.288412e+03
  2.425551e+01    1.283704e+03
  2.430851e+01    1.275815e+03
  2.436152e+01    1.272323e+03
  2.441452e+01    1.263938e+03
  2.446753e+01    1.259410e+03
  2.452053e+01    1.254233e+03
  2.457353e+01    1.248766e+03
  2.462654e+01    1.243869e+03
  2.467954e+01    1.235289e+03
  2.473255e+01    1.227312e+03
  2.478555e+01    1.218774e+03
  2.483855e+01    1.207418e+03
  2.489156e+01    1.198710e+03
  2.494456e+01    1.191106e+03
  2.499757e+01    1.184734e+03
  2.505057e+01    1.174817e+03
  2.510358e+01    1.168939e+03
  2.515658e+01    1.163509e+03
  2.520958e+01    1.157815e+03
  2.526259e+01    1.150726e+03
  2.531559e+01    1.145418e+03
  2.536860e+01    1.140745e+03
  2.542160e+01    1.137260e+03
  2.547460e+01    1.128402e+03
  2.552761e+01    1.118394e+03
  2.558061e+01    1.116497e+03
  2.563362e+01    1.114958e+03
  2.568662e+01    1.105183e+03
  2.573962e+01    1.097015e+03
  2.579263e+01    1.090534e+03
  2.584563e+01    1.081280e+03
  2.589864e+01    1.077003e+03
  2.595164e+01    1.076993e+03
  2.600465e+01    1.077327e+03
  2.605765e+01    1.077554e+03
  2.611065e+01    1.067399e+03
  2.616366e+01    1.065029e+03
  2.621666e+01    1.061982e+03
  2.626967e+01    1.053073e+03
  2.632267e+01    1.046141e+03
  2.637567e+01    1.035017e+03
  2.642868e+01    1.025280e+03
  2.648168e+01    1.008387e+03
