# == pyFAI calibration ==
# Distance Sample to Detector: 0.2945755399789714 m
# PONI: 2.880e-01, 2.450e-01 m
# Rotations: -0.007291 -0.010887 -0.000000 rad
# 
# == Fit2d calibration ==
# Distance Sample-beamCenter: 294.601 mm
# Center: x=1437.174, y=1655.617 pix
# Tilt: 0.751 deg  TiltPlanRot: -56.193 deg
# 
# Detector Pilatus CdTe 2M	 PixelSize= 1.720e-04, 1.720e-04 m
#    Detector has a mask: True 
#    Detector has a dark current: False 
#    detector has a flat field: False 
# 
# Wavelength: 2.0732883349524408e-11 m
# Mask applied: from detector
# Dark current applied: False
# Flat field applied: False
# Polarization factor: 0.9
# Normalization factor: 1.0
# --> /gpfs/current/raw/FMue_2/FMue_2_20231024_120911_00381.dat
#        q_A^-1             I 
  3.263564e-02             nan
  8.563974e-02             nan
  1.386438e-01             nan
  1.916479e-01             nan
  2.446520e-01    3.850619e+04
  2.976561e-01    2.947924e+04
  3.506602e-01    1.573128e+04
  4.036643e-01    1.102444e+04
  4.566684e-01    9.368390e+03
  5.096725e-01    8.922929e+03
  5.626766e-01    8.607781e+03
  6.156807e-01    8.270306e+03
  6.686848e-01    8.108817e+03
  7.216890e-01    8.155137e+03
  7.746931e-01    8.165424e+03
  8.276972e-01    8.240635e+03
  8.807013e-01    8.299976e+03
  9.337054e-01    8.448352e+03
  9.867095e-01    8.593509e+03
  1.039714e+00    8.860462e+03
  1.092718e+00    9.172679e+03
  1.145722e+00    9.654805e+03
  1.198726e+00    1.023150e+04
  1.251730e+00    1.093849e+04
  1.304734e+00    1.183136e+04
  1.357738e+00    1.268349e+04
  1.410742e+00    1.336611e+04
  1.463746e+00    1.369782e+04
  1.516750e+00    1.364819e+04
  1.569755e+00    1.315842e+04
  1.622759e+00    1.250211e+04
  1.675763e+00    1.164409e+04
  1.728767e+00    1.075740e+04
  1.781771e+00    9.950771e+03
  1.834775e+00    9.283476e+03
  1.887779e+00    8.714153e+03
  1.940783e+00    8.336007e+03
  1.993787e+00    8.021552e+03
  2.046791e+00    7.830650e+03
  2.099796e+00    7.759167e+03
  2.152800e+00    7.762884e+03
  2.205804e+00    7.784776e+03
  2.258808e+00    7.770571e+03
  2.311812e+00    7.716693e+03
  2.364816e+00    7.711726e+03
  2.417820e+00    7.940573e+03
  2.470824e+00    8.501580e+03
  2.523828e+00    9.413953e+03
  2.576832e+00    1.003137e+04
  2.629837e+00    9.167677e+03
  2.682841e+00    7.933930e+03
  2.735845e+00    7.413890e+03
  2.788849e+00    6.794011e+03
  2.841853e+00    6.487438e+03
  2.894857e+00    6.984899e+03
  2.947861e+00    8.612889e+03
  3.000865e+00    1.170501e+04
  3.053869e+00    1.367058e+04
  3.106874e+00    1.169078e+04
  3.159878e+00    1.001891e+04
  3.212882e+00    8.520862e+03
  3.265886e+00    6.520196e+03
  3.318890e+00    5.652663e+03
  3.371894e+00    5.545059e+03
  3.424898e+00    5.840114e+03
  3.477902e+00    6.521683e+03
  3.530906e+00    6.536220e+03
  3.583910e+00    5.662552e+03
  3.636915e+00    5.054750e+03
  3.689919e+00    4.878410e+03
  3.742923e+00    4.867712e+03
  3.795927e+00    4.924644e+03
  3.848931e+00    5.026251e+03
  3.901935e+00    5.179369e+03
  3.954939e+00    5.400360e+03
  4.007943e+00    5.703687e+03
  4.060947e+00    6.054478e+03
  4.113951e+00    6.436341e+03
  4.166956e+00    6.950703e+03
  4.219960e+00    7.527619e+03
  4.272964e+00    7.271351e+03
  4.325968e+00    6.819414e+03
  4.378972e+00    7.372373e+03
  4.431976e+00    9.444891e+03
  4.484980e+00    1.045275e+04
  4.537984e+00    8.250723e+03
  4.590988e+00    6.209294e+03
  4.643992e+00    5.479824e+03
  4.696997e+00    5.285449e+03
  4.750001e+00    5.239082e+03
  4.803005e+00    5.289056e+03
  4.856009e+00    5.491833e+03
  4.909013e+00    6.015309e+03
  4.962017e+00    6.739469e+03
  5.015021e+00    6.587034e+03
  5.068025e+00    5.868390e+03
  5.121029e+00    5.520377e+03
  5.174033e+00    5.323612e+03
  5.227038e+00    4.994366e+03
  5.280042e+00    4.659650e+03
  5.333046e+00    4.416962e+03
  5.386050e+00    4.281968e+03
  5.439054e+00    4.281252e+03
  5.492058e+00    4.243400e+03
  5.545062e+00    3.965456e+03
  5.598066e+00    3.762065e+03
  5.651070e+00    3.718903e+03
  5.704074e+00    3.804121e+03
  5.757079e+00    4.124635e+03
  5.810083e+00    4.719320e+03
  5.863087e+00    4.800724e+03
  5.916091e+00    4.323919e+03
  5.969095e+00    4.114245e+03
  6.022099e+00    4.118364e+03
  6.075103e+00    4.210096e+03
  6.128107e+00    4.100273e+03
  6.181111e+00    3.860401e+03
  6.234115e+00    3.813667e+03
  6.287120e+00    3.870430e+03
  6.340124e+00    3.853980e+03
  6.393128e+00    3.774061e+03
  6.446132e+00    3.672237e+03
  6.499136e+00    3.620015e+03
  6.552140e+00    3.585096e+03
  6.605144e+00    3.582169e+03
  6.658148e+00    3.582212e+03
  6.711152e+00    3.522479e+03
  6.764156e+00    3.442665e+03
  6.817161e+00    3.358613e+03
  6.870165e+00    3.278440e+03
  6.923169e+00    3.228212e+03
  6.976173e+00    3.273723e+03
  7.029177e+00    3.347224e+03
  7.082181e+00    3.366182e+03
  7.135185e+00    3.299680e+03
  7.188189e+00    3.229140e+03
  7.241193e+00    3.217955e+03
  7.294197e+00    3.251365e+03
  7.347202e+00    3.256777e+03
  7.400206e+00    3.246234e+03
  7.453210e+00    3.242189e+03
  7.506214e+00    3.273414e+03
  7.559218e+00    3.328749e+03
  7.612222e+00    3.467762e+03
  7.665226e+00    3.699635e+03
  7.718230e+00    3.871011e+03
  7.771234e+00    3.810812e+03
  7.824239e+00    3.634679e+03
  7.877243e+00    3.489426e+03
  7.930247e+00    3.289117e+03
  7.983251e+00    3.151593e+03
  8.036255e+00    3.097158e+03
  8.089259e+00    3.072472e+03
  8.142263e+00    3.066514e+03
  8.195267e+00    3.059205e+03
  8.248271e+00    3.044768e+03
  8.301275e+00    3.020862e+03
  8.354280e+00    3.004969e+03
  8.407284e+00    2.997276e+03
  8.460288e+00    2.996541e+03
  8.513292e+00    2.996847e+03
  8.566296e+00    3.035560e+03
  8.619300e+00    3.061781e+03
  8.672304e+00    3.027080e+03
  8.725308e+00    2.984995e+03
  8.778312e+00    2.953697e+03
  8.831316e+00    2.939568e+03
  8.884321e+00    2.944266e+03
  8.937325e+00    2.940979e+03
  8.990329e+00    2.906649e+03
  9.043333e+00    2.859321e+03
  9.096337e+00    2.844234e+03
  9.149341e+00    2.837346e+03
  9.202345e+00    2.781794e+03
  9.255349e+00    2.723693e+03
  9.308353e+00    2.688787e+03
  9.361357e+00    2.672200e+03
  9.414362e+00    2.655536e+03
  9.467366e+00    2.658269e+03
  9.520370e+00    2.637787e+03
  9.573374e+00    2.609595e+03
  9.626378e+00    2.596299e+03
  9.679382e+00    2.590223e+03
  9.732386e+00    2.590955e+03
  9.785390e+00    2.586136e+03
  9.838394e+00    2.586881e+03
  9.891398e+00    2.597208e+03
  9.944403e+00    2.601461e+03
  9.997407e+00    2.588038e+03
  1.005041e+01    2.556707e+03
  1.010341e+01    2.515383e+03
  1.015642e+01    2.496006e+03
  1.020942e+01    2.487046e+03
  1.026243e+01    2.486035e+03
  1.031543e+01    2.509351e+03
  1.036844e+01    2.565066e+03
  1.042144e+01    2.586384e+03
  1.047444e+01    2.576829e+03
  1.052745e+01    2.555294e+03
  1.058045e+01    2.539425e+03
  1.063346e+01    2.507987e+03
  1.068646e+01    2.484515e+03
  1.073946e+01    2.463350e+03
  1.079247e+01    2.450624e+03
  1.084547e+01    2.438072e+03
  1.089848e+01    2.435531e+03
  1.095148e+01    2.433584e+03
  1.100448e+01    2.426836e+03
  1.105749e+01    2.421499e+03
  1.111049e+01    2.422285e+03
  1.116350e+01    2.410132e+03
  1.121650e+01    2.400873e+03
  1.126951e+01    2.384131e+03
  1.132251e+01    2.376131e+03
  1.137551e+01    2.367099e+03
  1.142852e+01    2.369247e+03
  1.148152e+01    2.366845e+03
  1.153453e+01    2.366313e+03
  1.158753e+01    2.364862e+03
  1.164053e+01    2.358401e+03
  1.169354e+01    2.358927e+03
  1.174654e+01    2.378701e+03
  1.179955e+01    2.364483e+03
  1.185255e+01    2.353311e+03
  1.190555e+01    2.336781e+03
  1.195856e+01    2.323903e+03
  1.201156e+01    2.314349e+03
  1.206457e+01    2.306536e+03
  1.211757e+01    2.308332e+03
  1.217057e+01    2.310334e+03
  1.222358e+01    2.306416e+03
  1.227658e+01    2.303833e+03
  1.232959e+01    2.304639e+03
  1.238259e+01    2.298713e+03
  1.243560e+01    2.305886e+03
  1.248860e+01    2.306203e+03
  1.254160e+01    2.309847e+03
  1.259461e+01    2.309296e+03
  1.264761e+01    2.297895e+03
  1.270062e+01    2.284006e+03
  1.275362e+01    2.270115e+03
  1.280662e+01    2.261207e+03
  1.285963e+01    2.251342e+03
  1.291263e+01    2.241604e+03
  1.296564e+01    2.232729e+03
  1.301864e+01    2.230347e+03
  1.307164e+01    2.224165e+03
  1.312465e+01    2.218470e+03
  1.317765e+01    2.214623e+03
  1.323066e+01    2.193621e+03
  1.328366e+01    2.183181e+03
  1.333667e+01    2.177088e+03
  1.338967e+01    2.171080e+03
  1.344267e+01    2.186077e+03
  1.349568e+01    2.183827e+03
  1.354868e+01    2.174114e+03
  1.360169e+01    2.160905e+03
  1.365469e+01    2.145657e+03
  1.370769e+01    2.137214e+03
  1.376070e+01    2.124496e+03
  1.381370e+01    2.118358e+03
  1.386671e+01    2.110846e+03
  1.391971e+01    2.101899e+03
  1.397271e+01    2.097989e+03
  1.402572e+01    2.095732e+03
  1.407872e+01    2.087955e+03
  1.413173e+01    2.081026e+03
  1.418473e+01    2.080073e+03
  1.423773e+01    2.074569e+03
  1.429074e+01    2.066240e+03
  1.434374e+01    2.069560e+03
  1.439675e+01    2.060868e+03
  1.444975e+01    2.060131e+03
  1.450276e+01    2.054364e+03
  1.455576e+01    2.049231e+03
  1.460876e+01    2.045810e+03
  1.466177e+01    2.039447e+03
  1.471477e+01    2.038980e+03
  1.476778e+01    2.039391e+03
  1.482078e+01    2.039329e+03
  1.487378e+01    2.035523e+03
  1.492679e+01    2.029302e+03
  1.497979e+01    2.025703e+03
  1.503280e+01    2.024637e+03
  1.508580e+01    2.022228e+03
  1.513880e+01    2.021479e+03
  1.519181e+01    2.027607e+03
  1.524481e+01    2.049930e+03
  1.529782e+01    2.032246e+03
  1.535082e+01    2.022284e+03
  1.540382e+01    2.015385e+03
  1.545683e+01    2.005812e+03
  1.550983e+01    2.009957e+03
  1.556284e+01    2.006871e+03
  1.561584e+01    2.000151e+03
  1.566885e+01    1.997440e+03
  1.572185e+01    1.993848e+03
  1.577485e+01    1.991778e+03
  1.582786e+01    1.986677e+03
  1.588086e+01    1.983274e+03
  1.593387e+01    1.983132e+03
  1.598687e+01    1.980606e+03
  1.603987e+01    1.973689e+03
  1.609288e+01    1.966691e+03
  1.614588e+01    1.958770e+03
  1.619889e+01    1.961262e+03
  1.625189e+01    1.962402e+03
  1.630489e+01    1.958224e+03
  1.635790e+01    1.955720e+03
  1.641090e+01    1.950859e+03
  1.646391e+01    1.946917e+03
  1.651691e+01    1.943334e+03
  1.656992e+01    1.938457e+03
  1.662292e+01    1.933491e+03
  1.667592e+01    1.933757e+03
  1.672893e+01    1.928787e+03
  1.678193e+01    1.930126e+03
  1.683494e+01    1.924797e+03
  1.688794e+01    1.922371e+03
  1.694094e+01    1.920670e+03
  1.699395e+01    1.916318e+03
  1.704695e+01    1.913453e+03
  1.709996e+01    1.910254e+03
  1.715296e+01    1.904868e+03
  1.720596e+01    1.902563e+03
  1.725897e+01    1.898378e+03
  1.731197e+01    1.895627e+03
  1.736498e+01    1.890731e+03
  1.741798e+01    1.890062e+03
  1.747098e+01    1.889978e+03
  1.752399e+01    1.886696e+03
  1.757699e+01    1.881060e+03
  1.763000e+01    1.876355e+03
  1.768300e+01    1.873700e+03
  1.773601e+01    1.868630e+03
  1.778901e+01    1.863790e+03
  1.784201e+01    1.858597e+03
  1.789502e+01    1.857128e+03
  1.794802e+01    1.851403e+03
  1.800103e+01    1.849992e+03
  1.805403e+01    1.844649e+03
  1.810703e+01    1.840643e+03
  1.816004e+01    1.836829e+03
  1.821304e+01    1.833236e+03
  1.826605e+01    1.837823e+03
  1.831905e+01    1.827797e+03
  1.837205e+01    1.825281e+03
  1.842506e+01    1.820156e+03
  1.847806e+01    1.818879e+03
  1.853107e+01    1.818015e+03
  1.858407e+01    1.813789e+03
  1.863708e+01    1.815595e+03
  1.869008e+01    1.830809e+03
  1.874308e+01    1.819574e+03
  1.879609e+01    1.812492e+03
  1.884909e+01    1.808901e+03
  1.890210e+01    1.806782e+03
  1.895510e+01    1.798826e+03
  1.900810e+01    1.795049e+03
  1.906111e+01    1.789211e+03
  1.911411e+01    1.781756e+03
  1.916712e+01    1.778392e+03
  1.922012e+01    1.774537e+03
  1.927312e+01    1.767744e+03
  1.932613e+01    1.764671e+03
  1.937913e+01    1.759071e+03
  1.943214e+01    1.753323e+03
  1.948514e+01    1.750284e+03
  1.953814e+01    1.744679e+03
  1.959115e+01    1.741176e+03
  1.964415e+01    1.735759e+03
  1.969716e+01    1.733007e+03
  1.975016e+01    1.728151e+03
  1.980317e+01    1.722676e+03
  1.985617e+01    1.719057e+03
  1.990917e+01    1.711086e+03
  1.996218e+01    1.707572e+03
  2.001518e+01    1.703202e+03
  2.006819e+01    1.696246e+03
  2.012119e+01    1.691136e+03
  2.017419e+01    1.686912e+03
  2.022720e+01    1.680231e+03
  2.028020e+01    1.673699e+03
  2.033321e+01    1.667585e+03
  2.038621e+01    1.662606e+03
  2.043921e+01    1.658210e+03
  2.049222e+01    1.654385e+03
  2.054522e+01    1.648477e+03
  2.059823e+01    1.643598e+03
  2.065123e+01    1.637988e+03
  2.070424e+01    1.634736e+03
  2.075724e+01    1.634153e+03
  2.081024e+01    1.640677e+03
  2.086325e+01    1.630425e+03
  2.091625e+01    1.613432e+03
  2.096926e+01    1.601373e+03
  2.102226e+01    1.590891e+03
  2.107526e+01    1.580161e+03
  2.112827e+01    1.570038e+03
  2.118127e+01    1.562339e+03
  2.123428e+01    1.553734e+03
  2.128728e+01    1.545019e+03
  2.134028e+01    1.535699e+03
  2.139329e+01    1.526403e+03
  2.144629e+01    1.515963e+03
  2.149930e+01    1.507753e+03
  2.155230e+01    1.499036e+03
  2.160530e+01    1.492098e+03
  2.165831e+01    1.481476e+03
  2.171131e+01    1.475751e+03
  2.176432e+01    1.470038e+03
  2.181732e+01    1.460667e+03
  2.187033e+01    1.452332e+03
  2.192333e+01    1.446271e+03
  2.197633e+01    1.435568e+03
  2.202934e+01    1.428248e+03
  2.208234e+01    1.418901e+03
  2.213535e+01    1.411076e+03
  2.218835e+01    1.402313e+03
  2.224135e+01    1.393294e+03
  2.229436e+01    1.386691e+03
  2.234736e+01    1.378538e+03
  2.240037e+01    1.367390e+03
  2.245337e+01    1.361377e+03
  2.250637e+01    1.353905e+03
  2.255938e+01    1.347447e+03
  2.261238e+01    1.349341e+03
  2.266539e+01    1.351573e+03
  2.271839e+01    1.352530e+03
  2.277140e+01    1.351240e+03
  2.282440e+01    1.349407e+03
  2.287740e+01    1.348676e+03
  2.293041e+01    1.349436e+03
  2.298341e+01    1.346040e+03
  2.303642e+01    1.347483e+03
  2.308942e+01    1.344933e+03
  2.314242e+01    1.341591e+03
  2.319543e+01    1.336992e+03
  2.324843e+01    1.334087e+03
  2.330144e+01    1.331644e+03
  2.335444e+01    1.329686e+03
  2.340744e+01    1.329510e+03
  2.346045e+01    1.328988e+03
  2.351345e+01    1.325113e+03
  2.356646e+01    1.319924e+03
  2.361946e+01    1.321801e+03
  2.367246e+01    1.320791e+03
  2.372547e+01    1.314472e+03
  2.377847e+01    1.309793e+03
  2.383148e+01    1.306571e+03
  2.388448e+01    1.303500e+03
  2.393749e+01    1.299120e+03
  2.399049e+01    1.296131e+03
  2.404349e+01    1.294507e+03
  2.409650e+01    1.290012e+03
  2.414950e+01    1.282532e+03
  2.420251e+01    1.276167e+03
  2.425551e+01    1.269902e+03
  2.430851e+01    1.264252e+03
  2.436152e+01    1.259537e+03
  2.441452e+01    1.254965e+03
  2.446753e+01    1.247295e+03
  2.452053e+01    1.239962e+03
  2.457353e+01    1.235027e+03
  2.462654e+01    1.233490e+03
  2.467954e+01    1.222528e+03
  2.473255e+01    1.214396e+03
  2.478555e+01    1.206291e+03
  2.483855e+01    1.198118e+03
  2.489156e+01    1.186636e+03
  2.494456e+01    1.180071e+03
  2.499757e+01    1.171187e+03
  2.505057e+01    1.162232e+03
  2.510358e+01    1.157151e+03
  2.515658e+01    1.152617e+03
  2.520958e+01    1.147817e+03
  2.526259e+01    1.139615e+03
  2.531559e+01    1.139139e+03
  2.536860e+01    1.127680e+03
  2.542160e+01    1.125467e+03
  2.547460e+01    1.116028e+03
  2.552761e+01    1.110672e+03
  2.558061e+01    1.108273e+03
  2.563362e+01    1.104183e+03
  2.568662e+01    1.092172e+03
  2.573962e+01    1.085284e+03
  2.579263e+01    1.082190e+03
  2.584563e+01    1.073100e+03
  2.589864e+01    1.069463e+03
  2.595164e+01    1.064755e+03
  2.600465e+01    1.064244e+03
  2.605765e+01    1.059406e+03
  2.611065e+01    1.058319e+03
  2.616366e+01    1.056345e+03
  2.621666e+01    1.050760e+03
  2.626967e+01    1.035915e+03
  2.632267e+01    1.036474e+03
  2.637567e+01    1.029146e+03
  2.642868e+01    1.008171e+03
  2.648168e+01    9.865777e+02
