# == pyFAI calibration ==
# Distance Sample to Detector: 0.2945755399789714 m
# PONI: 2.880e-01, 2.450e-01 m
# Rotations: -0.007291 -0.010887 -0.000000 rad
# 
# == Fit2d calibration ==
# Distance Sample-beamCenter: 294.601 mm
# Center: x=1437.174, y=1655.617 pix
# Tilt: 0.751 deg  TiltPlanRot: -56.193 deg
# 
# Detector Pilatus CdTe 2M	 PixelSize= 1.720e-04, 1.720e-04 m
#    Detector has a mask: True 
#    Detector has a dark current: False 
#    detector has a flat field: False 
# 
# Wavelength: 2.0732883349524408e-11 m
# Mask applied: from detector
# Dark current applied: False
# Flat field applied: False
# Polarization factor: 0.9
# Normalization factor: 1.0
# --> /gpfs/current/raw/FMue_2/FMue_2_20231024_120911_00194.dat
#        q_A^-1             I 
  3.263564e-02             nan
  8.563974e-02             nan
  1.386438e-01             nan
  1.916479e-01             nan
  2.446520e-01    3.859975e+04
  2.976561e-01    2.991045e+04
  3.506602e-01    1.590964e+04
  4.036643e-01    1.115646e+04
  4.566684e-01    9.539197e+03
  5.096725e-01    9.135064e+03
  5.626766e-01    8.841970e+03
  6.156807e-01    8.485364e+03
  6.686848e-01    8.310155e+03
  7.216890e-01    8.343816e+03
  7.746931e-01    8.333212e+03
  8.276972e-01    8.398122e+03
  8.807013e-01    8.463980e+03
  9.337054e-01    8.594214e+03
  9.867095e-01    8.749865e+03
  1.039714e+00    9.000759e+03
  1.092718e+00    9.325877e+03
  1.145722e+00    9.814398e+03
  1.198726e+00    1.038308e+04
  1.251730e+00    1.108915e+04
  1.304734e+00    1.198377e+04
  1.357738e+00    1.284292e+04
  1.410742e+00    1.354016e+04
  1.463746e+00    1.388234e+04
  1.516750e+00    1.383779e+04
  1.569755e+00    1.336132e+04
  1.622759e+00    1.270773e+04
  1.675763e+00    1.184847e+04
  1.728767e+00    1.096593e+04
  1.781771e+00    1.016795e+04
  1.834775e+00    9.505446e+03
  1.887779e+00    8.949699e+03
  1.940783e+00    8.597047e+03
  1.993787e+00    8.305677e+03
  2.046791e+00    8.132515e+03
  2.099796e+00    8.084640e+03
  2.152800e+00    8.092823e+03
  2.205804e+00    8.175414e+03
  2.258808e+00    8.256723e+03
  2.311812e+00    8.288234e+03
  2.364816e+00    8.369959e+03
  2.417820e+00    8.690731e+03
  2.470824e+00    9.432519e+03
  2.523828e+00    1.100399e+04
  2.576832e+00    1.294332e+04
  2.629837e+00    1.100688e+04
  2.682841e+00    8.474465e+03
  2.735845e+00    7.749259e+03
  2.788849e+00    7.121625e+03
  2.841853e+00    6.808099e+03
  2.894857e+00    7.777521e+03
  2.947861e+00    1.123870e+04
  3.000865e+00    1.291524e+04
  3.053869e+00    9.522904e+03
  3.106874e+00    8.042855e+03
  3.159878e+00    8.604970e+03
  3.212882e+00    7.876493e+03
  3.265886e+00    6.022992e+03
  3.318890e+00    5.101548e+03
  3.371894e+00    4.859785e+03
  3.424898e+00    4.767217e+03
  3.477902e+00    4.726642e+03
  3.530906e+00    4.696286e+03
  3.583910e+00    4.676185e+03
  3.636915e+00    4.695442e+03
  3.689919e+00    4.739543e+03
  3.742923e+00    4.824740e+03
  3.795927e+00    4.938887e+03
  3.848931e+00    5.085792e+03
  3.901935e+00    5.279512e+03
  3.954939e+00    5.495223e+03
  4.007943e+00    5.844091e+03
  4.060947e+00    6.347376e+03
  4.113951e+00    7.150956e+03
  4.166956e+00    8.900144e+03
  4.219960e+00    1.103955e+04
  4.272964e+00    9.495789e+03
  4.325968e+00    7.267962e+03
  4.378972e+00    7.332354e+03
  4.431976e+00    9.367432e+03
  4.484980e+00    1.068518e+04
  4.537984e+00    8.637762e+03
  4.590988e+00    6.475217e+03
  4.643992e+00    5.670271e+03
  4.696997e+00    5.459273e+03
  4.750001e+00    5.422600e+03
  4.803005e+00    5.492713e+03
  4.856009e+00    5.776956e+03
  4.909013e+00    6.365702e+03
  4.962017e+00    6.648465e+03
  5.015021e+00    6.077382e+03
  5.068025e+00    5.697528e+03
  5.121029e+00    5.850176e+03
  5.174033e+00    5.969869e+03
  5.227038e+00    5.366041e+03
  5.280042e+00    4.709708e+03
  5.333046e+00    4.382729e+03
  5.386050e+00    4.217092e+03
  5.439054e+00    4.207775e+03
  5.492058e+00    4.186485e+03
  5.545062e+00    3.897426e+03
  5.598066e+00    3.648676e+03
  5.651070e+00    3.550561e+03
  5.704074e+00    3.523953e+03
  5.757079e+00    3.529310e+03
  5.810083e+00    3.568392e+03
  5.863087e+00    3.670243e+03
  5.916091e+00    3.871693e+03
  5.969095e+00    4.082800e+03
  6.022099e+00    4.048402e+03
  6.075103e+00    3.920067e+03
  6.128107e+00    3.832927e+03
  6.181111e+00    3.801893e+03
  6.234115e+00    3.870409e+03
  6.287120e+00    3.996392e+03
  6.340124e+00    4.047011e+03
  6.393128e+00    4.051921e+03
  6.446132e+00    4.065165e+03
  6.499136e+00    4.113644e+03
  6.552140e+00    4.041817e+03
  6.605144e+00    4.055718e+03
  6.658148e+00    4.176268e+03
  6.711152e+00    4.025844e+03
  6.764156e+00    3.702974e+03
  6.817161e+00    3.496018e+03
  6.870165e+00    3.369698e+03
  6.923169e+00    3.295484e+03
  6.976173e+00    3.313014e+03
  7.029177e+00    3.371131e+03
  7.082181e+00    3.422474e+03
  7.135185e+00    3.407094e+03
  7.188189e+00    3.403366e+03
  7.241193e+00    3.496377e+03
  7.294197e+00    3.654307e+03
  7.347202e+00    3.601111e+03
  7.400206e+00    3.405304e+03
  7.453210e+00    3.295597e+03
  7.506214e+00    3.269886e+03
  7.559218e+00    3.269434e+03
  7.612222e+00    3.312405e+03
  7.665226e+00    3.460876e+03
  7.718230e+00    3.712060e+03
  7.771234e+00    3.739426e+03
  7.824239e+00    3.467367e+03
  7.877243e+00    3.230774e+03
  7.930247e+00    3.105787e+03
  7.983251e+00    3.056038e+03
  8.036255e+00    3.046830e+03
  8.089259e+00    3.050486e+03
  8.142263e+00    3.062827e+03
  8.195267e+00    3.072310e+03
  8.248271e+00    3.072786e+03
  8.301275e+00    3.066576e+03
  8.354280e+00    3.069614e+03
  8.407284e+00    3.091248e+03
  8.460288e+00    3.085797e+03
  8.513292e+00    3.042163e+03
  8.566296e+00    3.021399e+03
  8.619300e+00    3.011942e+03
  8.672304e+00    3.018842e+03
  8.725308e+00    3.049218e+03
  8.778312e+00    3.079886e+03
  8.831316e+00    3.101974e+03
  8.884321e+00    3.110048e+03
  8.937325e+00    3.094638e+03
  8.990329e+00    3.017745e+03
  9.043333e+00    2.897878e+03
  9.096337e+00    2.812131e+03
  9.149341e+00    2.771224e+03
  9.202345e+00    2.753146e+03
  9.255349e+00    2.743150e+03
  9.308353e+00    2.745419e+03
  9.361357e+00    2.758365e+03
  9.414362e+00    2.764305e+03
  9.467366e+00    2.766419e+03
  9.520370e+00    2.729204e+03
  9.573374e+00    2.685562e+03
  9.626378e+00    2.668325e+03
  9.679382e+00    2.664787e+03
  9.732386e+00    2.671929e+03
  9.785390e+00    2.674259e+03
  9.838394e+00    2.671590e+03
  9.891398e+00    2.665856e+03
  9.944403e+00    2.648412e+03
  9.997407e+00    2.619191e+03
  1.005041e+01    2.590040e+03
  1.010341e+01    2.546462e+03
  1.015642e+01    2.522701e+03
  1.020942e+01    2.511205e+03
  1.026243e+01    2.505060e+03
  1.031543e+01    2.513378e+03
  1.036844e+01    2.532641e+03
  1.042144e+01    2.531017e+03
  1.047444e+01    2.535802e+03
  1.052745e+01    2.533907e+03
  1.058045e+01    2.533221e+03
  1.063346e+01    2.537493e+03
  1.068646e+01    2.533866e+03
  1.073946e+01    2.514372e+03
  1.079247e+01    2.500021e+03
  1.084547e+01    2.481784e+03
  1.089848e+01    2.478119e+03
  1.095148e+01    2.478001e+03
  1.100448e+01    2.475199e+03
  1.105749e+01    2.474639e+03
  1.111049e+01    2.478852e+03
  1.116350e+01    2.472304e+03
  1.121650e+01    2.456863e+03
  1.126951e+01    2.437527e+03
  1.132251e+01    2.424998e+03
  1.137551e+01    2.414335e+03
  1.142852e+01    2.408972e+03
  1.148152e+01    2.394826e+03
  1.153453e+01    2.382297e+03
  1.158753e+01    2.372521e+03
  1.164053e+01    2.364519e+03
  1.169354e+01    2.369093e+03
  1.174654e+01    2.400374e+03
  1.179955e+01    2.397106e+03
  1.185255e+01    2.394314e+03
  1.190555e+01    2.380810e+03
  1.195856e+01    2.368514e+03
  1.201156e+01    2.359287e+03
  1.206457e+01    2.352466e+03
  1.211757e+01    2.356557e+03
  1.217057e+01    2.359757e+03
  1.222358e+01    2.357823e+03
  1.227658e+01    2.357276e+03
  1.232959e+01    2.356589e+03
  1.238259e+01    2.344774e+03
  1.243560e+01    2.344174e+03
  1.248860e+01    2.339650e+03
  1.254160e+01    2.340179e+03
  1.259461e+01    2.339075e+03
  1.264761e+01    2.335622e+03
  1.270062e+01    2.321633e+03
  1.275362e+01    2.311552e+03
  1.280662e+01    2.305215e+03
  1.285963e+01    2.297402e+03
  1.291263e+01    2.286960e+03
  1.296564e+01    2.276956e+03
  1.301864e+01    2.267823e+03
  1.307164e+01    2.254736e+03
  1.312465e+01    2.242628e+03
  1.317765e+01    2.235886e+03
  1.323066e+01    2.218000e+03
  1.328366e+01    2.212848e+03
  1.333667e+01    2.208545e+03
  1.338967e+01    2.204531e+03
  1.344267e+01    2.215810e+03
  1.349568e+01    2.213584e+03
  1.354868e+01    2.206069e+03
  1.360169e+01    2.196672e+03
  1.365469e+01    2.184345e+03
  1.370769e+01    2.174549e+03
  1.376070e+01    2.162764e+03
  1.381370e+01    2.154178e+03
  1.386671e+01    2.145283e+03
  1.391971e+01    2.138462e+03
  1.397271e+01    2.135629e+03
  1.402572e+01    2.130184e+03
  1.407872e+01    2.122146e+03
  1.413173e+01    2.115684e+03
  1.418473e+01    2.113793e+03
  1.423773e+01    2.108843e+03
  1.429074e+01    2.099044e+03
  1.434374e+01    2.097885e+03
  1.439675e+01    2.091823e+03
  1.444975e+01    2.090233e+03
  1.450276e+01    2.084463e+03
  1.455576e+01    2.080559e+03
  1.460876e+01    2.078963e+03
  1.466177e+01    2.076823e+03
  1.471477e+01    2.076113e+03
  1.476778e+01    2.078484e+03
  1.482078e+01    2.077900e+03
  1.487378e+01    2.072027e+03
  1.492679e+01    2.068609e+03
  1.497979e+01    2.062248e+03
  1.503280e+01    2.060590e+03
  1.508580e+01    2.059156e+03
  1.513880e+01    2.055946e+03
  1.519181e+01    2.062819e+03
  1.524481e+01    2.083400e+03
  1.529782e+01    2.065501e+03
  1.535082e+01    2.054812e+03
  1.540382e+01    2.049406e+03
  1.545683e+01    2.040040e+03
  1.550983e+01    2.045448e+03
  1.556284e+01    2.038895e+03
  1.561584e+01    2.034177e+03
  1.566885e+01    2.029363e+03
  1.572185e+01    2.026898e+03
  1.577485e+01    2.024580e+03
  1.582786e+01    2.021088e+03
  1.588086e+01    2.018150e+03
  1.593387e+01    2.015563e+03
  1.598687e+01    2.012251e+03
  1.603987e+01    2.005837e+03
  1.609288e+01    1.995946e+03
  1.614588e+01    1.989429e+03
  1.619889e+01    1.991454e+03
  1.625189e+01    1.994092e+03
  1.630489e+01    1.990686e+03
  1.635790e+01    1.987381e+03
  1.641090e+01    1.984704e+03
  1.646391e+01    1.977800e+03
  1.651691e+01    1.976020e+03
  1.656992e+01    1.970051e+03
  1.662292e+01    1.966108e+03
  1.667592e+01    1.964580e+03
  1.672893e+01    1.962785e+03
  1.678193e+01    1.964068e+03
  1.683494e+01    1.958099e+03
  1.688794e+01    1.958402e+03
  1.694094e+01    1.956766e+03
  1.699395e+01    1.951904e+03
  1.704695e+01    1.949879e+03
  1.709996e+01    1.943967e+03
  1.715296e+01    1.940320e+03
  1.720596e+01    1.938435e+03
  1.725897e+01    1.933571e+03
  1.731197e+01    1.931222e+03
  1.736498e+01    1.925955e+03
  1.741798e+01    1.923320e+03
  1.747098e+01    1.924103e+03
  1.752399e+01    1.920796e+03
  1.757699e+01    1.913285e+03
  1.763000e+01    1.909525e+03
  1.768300e+01    1.906200e+03
  1.773601e+01    1.902644e+03
  1.778901e+01    1.897587e+03
  1.784201e+01    1.891126e+03
  1.789502e+01    1.889595e+03
  1.794802e+01    1.884022e+03
  1.800103e+01    1.883052e+03
  1.805403e+01    1.880470e+03
  1.810703e+01    1.872963e+03
  1.816004e+01    1.869844e+03
  1.821304e+01    1.867150e+03
  1.826605e+01    1.869643e+03
  1.831905e+01    1.861589e+03
  1.837205e+01    1.859220e+03
  1.842506e+01    1.857605e+03
  1.847806e+01    1.854543e+03
  1.853107e+01    1.852988e+03
  1.858407e+01    1.851542e+03
  1.863708e+01    1.850389e+03
  1.869008e+01    1.864326e+03
  1.874308e+01    1.855565e+03
  1.879609e+01    1.849760e+03
  1.884909e+01    1.846494e+03
  1.890210e+01    1.842771e+03
  1.895510e+01    1.836900e+03
  1.900810e+01    1.833321e+03
  1.906111e+01    1.827073e+03
  1.911411e+01    1.819751e+03
  1.916712e+01    1.816642e+03
  1.922012e+01    1.813853e+03
  1.927312e+01    1.806632e+03
  1.932613e+01    1.804145e+03
  1.937913e+01    1.799626e+03
  1.943214e+01    1.793194e+03
  1.948514e+01    1.789721e+03
  1.953814e+01    1.785295e+03
  1.959115e+01    1.781820e+03
  1.964415e+01    1.775778e+03
  1.969716e+01    1.772567e+03
  1.975016e+01    1.768017e+03
  1.980317e+01    1.762656e+03
  1.985617e+01    1.758114e+03
  1.990917e+01    1.752598e+03
  1.996218e+01    1.747245e+03
  2.001518e+01    1.743681e+03
  2.006819e+01    1.735914e+03
  2.012119e+01    1.729806e+03
  2.017419e+01    1.727372e+03
  2.022720e+01    1.719537e+03
  2.028020e+01    1.713394e+03
  2.033321e+01    1.707049e+03
  2.038621e+01    1.701379e+03
  2.043921e+01    1.697379e+03
  2.049222e+01    1.692982e+03
  2.054522e+01    1.687068e+03
  2.059823e+01    1.683928e+03
  2.065123e+01    1.677286e+03
  2.070424e+01    1.673078e+03
  2.075724e+01    1.671618e+03
  2.081024e+01    1.680574e+03
  2.086325e+01    1.669748e+03
  2.091625e+01    1.653391e+03
  2.096926e+01    1.640411e+03
  2.102226e+01    1.628611e+03
  2.107526e+01    1.620375e+03
  2.112827e+01    1.609820e+03
  2.118127e+01    1.601940e+03
  2.123428e+01    1.593506e+03
  2.128728e+01    1.582983e+03
  2.134028e+01    1.574999e+03
  2.139329e+01    1.564384e+03
  2.144629e+01    1.555534e+03
  2.149930e+01    1.547002e+03
  2.155230e+01    1.537895e+03
  2.160530e+01    1.530470e+03
  2.165831e+01    1.520848e+03
  2.171131e+01    1.514511e+03
  2.176432e+01    1.510045e+03
  2.181732e+01    1.499603e+03
  2.187033e+01    1.490938e+03
  2.192333e+01    1.484447e+03
  2.197633e+01    1.474612e+03
  2.202934e+01    1.465540e+03
  2.208234e+01    1.455429e+03
  2.213535e+01    1.448369e+03
  2.218835e+01    1.439048e+03
  2.224135e+01    1.429936e+03
  2.229436e+01    1.423481e+03
  2.234736e+01    1.415562e+03
  2.240037e+01    1.405664e+03
  2.245337e+01    1.396924e+03
  2.250637e+01    1.399961e+03
  2.255938e+01    1.382069e+03
  2.261238e+01    1.384210e+03
  2.266539e+01    1.385495e+03
  2.271839e+01    1.386819e+03
  2.277140e+01    1.385351e+03
  2.282440e+01    1.383086e+03
  2.287740e+01    1.382015e+03
  2.293041e+01    1.381557e+03
  2.298341e+01    1.380489e+03
  2.303642e+01    1.381365e+03
  2.308942e+01    1.377609e+03
  2.314242e+01    1.375729e+03
  2.319543e+01    1.372285e+03
  2.324843e+01    1.366790e+03
  2.330144e+01    1.366247e+03
  2.335444e+01    1.362637e+03
  2.340744e+01    1.362518e+03
  2.346045e+01    1.361476e+03
  2.351345e+01    1.359113e+03
  2.356646e+01    1.354125e+03
  2.361946e+01    1.354790e+03
  2.367246e+01    1.353185e+03
  2.372547e+01    1.346971e+03
  2.377847e+01    1.343614e+03
  2.383148e+01    1.338318e+03
  2.388448e+01    1.336153e+03
  2.393749e+01    1.332665e+03
  2.399049e+01    1.331076e+03
  2.404349e+01    1.328106e+03
  2.409650e+01    1.323702e+03
  2.414950e+01    1.316893e+03
  2.420251e+01    1.311500e+03
  2.425551e+01    1.307936e+03
  2.430851e+01    1.300954e+03
  2.436152e+01    1.296640e+03
  2.441452e+01    1.291243e+03
  2.446753e+01    1.286708e+03
  2.452053e+01    1.278156e+03
  2.457353e+01    1.275192e+03
  2.462654e+01    1.272718e+03
  2.467954e+01    1.261041e+03
  2.473255e+01    1.251631e+03
  2.478555e+01    1.242306e+03
  2.483855e+01    1.235706e+03
  2.489156e+01    1.223960e+03
  2.494456e+01    1.214191e+03
  2.499757e+01    1.205106e+03
  2.505057e+01    1.196877e+03
  2.510358e+01    1.190762e+03
  2.515658e+01    1.185576e+03
  2.520958e+01    1.180950e+03
  2.526259e+01    1.171476e+03
  2.531559e+01    1.167868e+03
  2.536860e+01    1.162877e+03
  2.542160e+01    1.153895e+03
  2.547460e+01    1.145445e+03
  2.552761e+01    1.137854e+03
  2.558061e+01    1.137914e+03
  2.563362e+01    1.131149e+03
  2.568662e+01    1.123221e+03
  2.573962e+01    1.117670e+03
  2.579263e+01    1.104649e+03
  2.584563e+01    1.099750e+03
  2.589864e+01    1.094454e+03
  2.595164e+01    1.090428e+03
  2.600465e+01    1.094271e+03
  2.605765e+01    1.083591e+03
  2.611065e+01    1.082403e+03
  2.616366e+01    1.081097e+03
  2.621666e+01    1.075231e+03
  2.626967e+01    1.067255e+03
  2.632267e+01    1.062021e+03
  2.637567e+01    1.054112e+03
  2.642868e+01    1.032099e+03
  2.648168e+01    1.023244e+03
