# == pyFAI calibration ==
# Distance Sample to Detector: 0.2945755399789714 m
# PONI: 2.880e-01, 2.450e-01 m
# Rotations: -0.007291 -0.010887 -0.000000 rad
# 
# == Fit2d calibration ==
# Distance Sample-beamCenter: 294.601 mm
# Center: x=1437.174, y=1655.617 pix
# Tilt: 0.751 deg  TiltPlanRot: -56.193 deg
# 
# Detector Pilatus CdTe 2M	 PixelSize= 1.720e-04, 1.720e-04 m
#    Detector has a mask: True 
#    Detector has a dark current: False 
#    detector has a flat field: False 
# 
# Wavelength: 2.0732883349524408e-11 m
# Mask applied: from detector
# Dark current applied: False
# Flat field applied: False
# Polarization factor: 0.9
# Normalization factor: 1.0
# --> /gpfs/current/raw/FMue_2/FMue_2_20231024_120911_00321.dat
#        q_A^-1             I 
  3.263564e-02             nan
  8.563974e-02             nan
  1.386438e-01             nan
  1.916479e-01             nan
  2.446520e-01    3.767666e+04
  2.976561e-01    2.934658e+04
  3.506602e-01    1.579149e+04
  4.036643e-01    1.108314e+04
  4.566684e-01    9.442150e+03
  5.096725e-01    8.990454e+03
  5.626766e-01    8.670456e+03
  6.156807e-01    8.317406e+03
  6.686848e-01    8.152199e+03
  7.216890e-01    8.213142e+03
  7.746931e-01    8.199860e+03
  8.276972e-01    8.274289e+03
  8.807013e-01    8.342785e+03
  9.337054e-01    8.488899e+03
  9.867095e-01    8.645550e+03
  1.039714e+00    8.892698e+03
  1.092718e+00    9.223097e+03
  1.145722e+00    9.702160e+03
  1.198726e+00    1.028609e+04
  1.251730e+00    1.098828e+04
  1.304734e+00    1.187922e+04
  1.357738e+00    1.273997e+04
  1.410742e+00    1.342439e+04
  1.463746e+00    1.376259e+04
  1.516750e+00    1.371379e+04
  1.569755e+00    1.321460e+04
  1.622759e+00    1.256715e+04
  1.675763e+00    1.170756e+04
  1.728767e+00    1.081687e+04
  1.781771e+00    1.001303e+04
  1.834775e+00    9.344383e+03
  1.887779e+00    8.780068e+03
  1.940783e+00    8.409476e+03
  1.993787e+00    8.086695e+03
  2.046791e+00    7.905617e+03
  2.099796e+00    7.822888e+03
  2.152800e+00    7.819497e+03
  2.205804e+00    7.867250e+03
  2.258808e+00    7.872011e+03
  2.311812e+00    7.838808e+03
  2.364816e+00    7.858314e+03
  2.417820e+00    8.116580e+03
  2.470824e+00    8.715856e+03
  2.523828e+00    9.713085e+03
  2.576832e+00    1.046028e+04
  2.629837e+00    9.438315e+03
  2.682841e+00    8.036974e+03
  2.735845e+00    7.492856e+03
  2.788849e+00    6.880870e+03
  2.841853e+00    6.585112e+03
  2.894857e+00    7.175541e+03
  2.947861e+00    9.054322e+03
  3.000865e+00    1.181108e+04
  3.053869e+00    1.289046e+04
  3.106874e+00    1.106654e+04
  3.159878e+00    9.799303e+03
  3.212882e+00    8.408052e+03
  3.265886e+00    6.444832e+03
  3.318890e+00    5.575685e+03
  3.371894e+00    5.449746e+03
  3.424898e+00    5.687522e+03
  3.477902e+00    6.236008e+03
  3.530906e+00    6.224647e+03
  3.583910e+00    5.506235e+03
  3.636915e+00    5.013767e+03
  3.689919e+00    4.872558e+03
  3.742923e+00    4.875721e+03
  3.795927e+00    4.948880e+03
  3.848931e+00    5.050317e+03
  3.901935e+00    5.215222e+03
  3.954939e+00    5.433298e+03
  4.007943e+00    5.753545e+03
  4.060947e+00    6.134277e+03
  4.113951e+00    6.591532e+03
  4.166956e+00    7.310112e+03
  4.219960e+00    8.077345e+03
  4.272964e+00    7.600950e+03
  4.325968e+00    6.904017e+03
  4.378972e+00    7.385615e+03
  4.431976e+00    9.464826e+03
  4.484980e+00    1.047840e+04
  4.537984e+00    8.294324e+03
  4.590988e+00    6.260104e+03
  4.643992e+00    5.532208e+03
  4.696997e+00    5.341414e+03
  4.750001e+00    5.299746e+03
  4.803005e+00    5.352780e+03
  4.856009e+00    5.576242e+03
  4.909013e+00    6.098973e+03
  4.962017e+00    6.704311e+03
  5.015021e+00    6.485411e+03
  5.068025e+00    5.851360e+03
  5.121029e+00    5.589913e+03
  5.174033e+00    5.420605e+03
  5.227038e+00    5.055747e+03
  5.280042e+00    4.679786e+03
  5.333046e+00    4.426348e+03
  5.386050e+00    4.283436e+03
  5.439054e+00    4.286286e+03
  5.492058e+00    4.247279e+03
  5.545062e+00    3.960422e+03
  5.598066e+00    3.757555e+03
  5.651070e+00    3.708567e+03
  5.704074e+00    3.776605e+03
  5.757079e+00    4.047829e+03
  5.810083e+00    4.536434e+03
  5.863087e+00    4.603047e+03
  5.916091e+00    4.250865e+03
  5.969095e+00    4.112750e+03
  6.022099e+00    4.111335e+03
  6.075103e+00    4.167837e+03
  6.128107e+00    4.056381e+03
  6.181111e+00    3.856211e+03
  6.234115e+00    3.835458e+03
  6.287120e+00    3.902640e+03
  6.340124e+00    3.898029e+03
  6.393128e+00    3.836124e+03
  6.446132e+00    3.748406e+03
  6.499136e+00    3.706672e+03
  6.552140e+00    3.667329e+03
  6.605144e+00    3.666043e+03
  6.658148e+00    3.675538e+03
  6.711152e+00    3.597696e+03
  6.764156e+00    3.486651e+03
  6.817161e+00    3.387936e+03
  6.870165e+00    3.303174e+03
  6.923169e+00    3.249136e+03
  6.976173e+00    3.294745e+03
  7.029177e+00    3.362833e+03
  7.082181e+00    3.388553e+03
  7.135185e+00    3.325037e+03
  7.188189e+00    3.268068e+03
  7.241193e+00    3.274293e+03
  7.294197e+00    3.320052e+03
  7.347202e+00    3.310222e+03
  7.400206e+00    3.275192e+03
  7.453210e+00    3.262021e+03
  7.506214e+00    3.286378e+03
  7.559218e+00    3.332035e+03
  7.612222e+00    3.453894e+03
  7.665226e+00    3.662969e+03
  7.718230e+00    3.845468e+03
  7.771234e+00    3.792912e+03
  7.824239e+00    3.605566e+03
  7.877243e+00    3.442946e+03
  7.930247e+00    3.261074e+03
  7.983251e+00    3.143217e+03
  8.036255e+00    3.098288e+03
  8.089259e+00    3.076823e+03
  8.142263e+00    3.077833e+03
  8.195267e+00    3.069617e+03
  8.248271e+00    3.060178e+03
  8.301275e+00    3.037763e+03
  8.354280e+00    3.025005e+03
  8.407284e+00    3.019959e+03
  8.460288e+00    3.016844e+03
  8.513292e+00    3.012152e+03
  8.566296e+00    3.043821e+03
  8.619300e+00    3.058868e+03
  8.672304e+00    3.034050e+03
  8.725308e+00    3.003948e+03
  8.778312e+00    2.981791e+03
  8.831316e+00    2.970068e+03
  8.884321e+00    2.974404e+03
  8.937325e+00    2.969412e+03
  8.990329e+00    2.927312e+03
  9.043333e+00    2.871933e+03
  9.096337e+00    2.846079e+03
  9.149341e+00    2.829562e+03
  9.202345e+00    2.780025e+03
  9.255349e+00    2.734142e+03
  9.308353e+00    2.705290e+03
  9.361357e+00    2.693259e+03
  9.414362e+00    2.677087e+03
  9.467366e+00    2.678517e+03
  9.520370e+00    2.655968e+03
  9.573374e+00    2.629968e+03
  9.626378e+00    2.614673e+03
  9.679382e+00    2.610752e+03
  9.732386e+00    2.609409e+03
  9.785390e+00    2.606465e+03
  9.838394e+00    2.606892e+03
  9.891398e+00    2.611378e+03
  9.944403e+00    2.613161e+03
  9.997407e+00    2.596865e+03
  1.005041e+01    2.568584e+03
  1.010341e+01    2.526043e+03
  1.015642e+01    2.503853e+03
  1.020942e+01    2.498632e+03
  1.026243e+01    2.497215e+03
  1.031543e+01    2.519403e+03
  1.036844e+01    2.563987e+03
  1.042144e+01    2.579561e+03
  1.047444e+01    2.574389e+03
  1.052745e+01    2.555938e+03
  1.058045e+01    2.544468e+03
  1.063346e+01    2.517283e+03
  1.068646e+01    2.494117e+03
  1.073946e+01    2.475672e+03
  1.079247e+01    2.460360e+03
  1.084547e+01    2.448745e+03
  1.089848e+01    2.448011e+03
  1.095148e+01    2.447000e+03
  1.100448e+01    2.438591e+03
  1.105749e+01    2.436170e+03
  1.111049e+01    2.435770e+03
  1.116350e+01    2.423744e+03
  1.121650e+01    2.411671e+03
  1.126951e+01    2.396864e+03
  1.132251e+01    2.389859e+03
  1.137551e+01    2.380928e+03
  1.142852e+01    2.377475e+03
  1.148152e+01    2.376610e+03
  1.153453e+01    2.374792e+03
  1.158753e+01    2.369552e+03
  1.164053e+01    2.365380e+03
  1.169354e+01    2.364710e+03
  1.174654e+01    2.386656e+03
  1.179955e+01    2.375539e+03
  1.185255e+01    2.365410e+03
  1.190555e+01    2.348539e+03
  1.195856e+01    2.336596e+03
  1.201156e+01    2.327726e+03
  1.206457e+01    2.319115e+03
  1.211757e+01    2.322232e+03
  1.217057e+01    2.323875e+03
  1.222358e+01    2.320730e+03
  1.227658e+01    2.317372e+03
  1.232959e+01    2.318583e+03
  1.238259e+01    2.310662e+03
  1.243560e+01    2.314188e+03
  1.248860e+01    2.315293e+03
  1.254160e+01    2.319710e+03
  1.259461e+01    2.317724e+03
  1.264761e+01    2.308656e+03
  1.270062e+01    2.296308e+03
  1.275362e+01    2.280999e+03
  1.280662e+01    2.273471e+03
  1.285963e+01    2.263671e+03
  1.291263e+01    2.253368e+03
  1.296564e+01    2.244090e+03
  1.301864e+01    2.239479e+03
  1.307164e+01    2.234064e+03
  1.312465e+01    2.228151e+03
  1.317765e+01    2.222212e+03
  1.323066e+01    2.199239e+03
  1.328366e+01    2.191852e+03
  1.333667e+01    2.185595e+03
  1.338967e+01    2.180821e+03
  1.344267e+01    2.195074e+03
  1.349568e+01    2.190603e+03
  1.354868e+01    2.182180e+03
  1.360169e+01    2.170852e+03
  1.365469e+01    2.155732e+03
  1.370769e+01    2.146129e+03
  1.376070e+01    2.134949e+03
  1.381370e+01    2.128004e+03
  1.386671e+01    2.119952e+03
  1.391971e+01    2.110994e+03
  1.397271e+01    2.110646e+03
  1.402572e+01    2.103766e+03
  1.407872e+01    2.097307e+03
  1.413173e+01    2.091331e+03
  1.418473e+01    2.089452e+03
  1.423773e+01    2.083692e+03
  1.429074e+01    2.075711e+03
  1.434374e+01    2.078234e+03
  1.439675e+01    2.070011e+03
  1.444975e+01    2.068894e+03
  1.450276e+01    2.063536e+03
  1.455576e+01    2.056637e+03
  1.460876e+01    2.054773e+03
  1.466177e+01    2.050208e+03
  1.471477e+01    2.048118e+03
  1.476778e+01    2.051115e+03
  1.482078e+01    2.048942e+03
  1.487378e+01    2.043898e+03
  1.492679e+01    2.038524e+03
  1.497979e+01    2.036115e+03
  1.503280e+01    2.033282e+03
  1.508580e+01    2.032488e+03
  1.513880e+01    2.031343e+03
  1.519181e+01    2.035933e+03
  1.524481e+01    2.059639e+03
  1.529782e+01    2.041314e+03
  1.535082e+01    2.030062e+03
  1.540382e+01    2.024559e+03
  1.545683e+01    2.014606e+03
  1.550983e+01    2.018948e+03
  1.556284e+01    2.017111e+03
  1.561584e+01    2.010044e+03
  1.566885e+01    2.006410e+03
  1.572185e+01    2.003291e+03
  1.577485e+01    2.000928e+03
  1.582786e+01    1.997650e+03
  1.588086e+01    1.994489e+03
  1.593387e+01    1.992824e+03
  1.598687e+01    1.990848e+03
  1.603987e+01    1.983191e+03
  1.609288e+01    1.973551e+03
  1.614588e+01    1.966671e+03
  1.619889e+01    1.970115e+03
  1.625189e+01    1.971549e+03
  1.630489e+01    1.968909e+03
  1.635790e+01    1.964005e+03
  1.641090e+01    1.961494e+03
  1.646391e+01    1.953797e+03
  1.651691e+01    1.951786e+03
  1.656992e+01    1.945860e+03
  1.662292e+01    1.942586e+03
  1.667592e+01    1.941420e+03
  1.672893e+01    1.937099e+03
  1.678193e+01    1.938073e+03
  1.683494e+01    1.934255e+03
  1.688794e+01    1.932868e+03
  1.694094e+01    1.930112e+03
  1.699395e+01    1.925046e+03
  1.704695e+01    1.920820e+03
  1.709996e+01    1.917178e+03
  1.715296e+01    1.913562e+03
  1.720596e+01    1.911574e+03
  1.725897e+01    1.906740e+03
  1.731197e+01    1.903963e+03
  1.736498e+01    1.899797e+03
  1.741798e+01    1.898158e+03
  1.747098e+01    1.897109e+03
  1.752399e+01    1.896347e+03
  1.757699e+01    1.889565e+03
  1.763000e+01    1.884442e+03
  1.768300e+01    1.879555e+03
  1.773601e+01    1.877785e+03
  1.778901e+01    1.872360e+03
  1.784201e+01    1.865402e+03
  1.789502e+01    1.865037e+03
  1.794802e+01    1.858036e+03
  1.800103e+01    1.858013e+03
  1.805403e+01    1.853090e+03
  1.810703e+01    1.847720e+03
  1.816004e+01    1.844302e+03
  1.821304e+01    1.842417e+03
  1.826605e+01    1.844589e+03
  1.831905e+01    1.834201e+03
  1.837205e+01    1.831996e+03
  1.842506e+01    1.828298e+03
  1.847806e+01    1.826200e+03
  1.853107e+01    1.824421e+03
  1.858407e+01    1.823237e+03
  1.863708e+01    1.823804e+03
  1.869008e+01    1.836337e+03
  1.874308e+01    1.827143e+03
  1.879609e+01    1.821415e+03
  1.884909e+01    1.816189e+03
  1.890210e+01    1.814188e+03
  1.895510e+01    1.807987e+03
  1.900810e+01    1.804701e+03
  1.906111e+01    1.797802e+03
  1.911411e+01    1.789794e+03
  1.916712e+01    1.786536e+03
  1.922012e+01    1.782538e+03
  1.927312e+01    1.775961e+03
  1.932613e+01    1.773210e+03
  1.937913e+01    1.767227e+03
  1.943214e+01    1.762026e+03
  1.948514e+01    1.759717e+03
  1.953814e+01    1.753127e+03
  1.959115e+01    1.748885e+03
  1.964415e+01    1.743106e+03
  1.969716e+01    1.739693e+03
  1.975016e+01    1.735806e+03
  1.980317e+01    1.730539e+03
  1.985617e+01    1.725544e+03
  1.990917e+01    1.719433e+03
  1.996218e+01    1.715923e+03
  2.001518e+01    1.712203e+03
  2.006819e+01    1.703714e+03
  2.012119e+01    1.697856e+03
  2.017419e+01    1.693882e+03
  2.022720e+01    1.688250e+03
  2.028020e+01    1.681529e+03
  2.033321e+01    1.675831e+03
  2.038621e+01    1.669531e+03
  2.043921e+01    1.665467e+03
  2.049222e+01    1.661020e+03
  2.054522e+01    1.655618e+03
  2.059823e+01    1.651640e+03
  2.065123e+01    1.645556e+03
  2.070424e+01    1.642422e+03
  2.075724e+01    1.641525e+03
  2.081024e+01    1.648983e+03
  2.086325e+01    1.637844e+03
  2.091625e+01    1.620484e+03
  2.096926e+01    1.607304e+03
  2.102226e+01    1.596722e+03
  2.107526e+01    1.589244e+03
  2.112827e+01    1.577766e+03
  2.118127e+01    1.570104e+03
  2.123428e+01    1.560412e+03
  2.128728e+01    1.551940e+03
  2.134028e+01    1.543384e+03
  2.139329e+01    1.531445e+03
  2.144629e+01    1.522733e+03
  2.149930e+01    1.514294e+03
  2.155230e+01    1.504820e+03
  2.160530e+01    1.499026e+03
  2.165831e+01    1.487710e+03
  2.171131e+01    1.481705e+03
  2.176432e+01    1.476324e+03
  2.181732e+01    1.466912e+03
  2.187033e+01    1.458335e+03
  2.192333e+01    1.451508e+03
  2.197633e+01    1.441852e+03
  2.202934e+01    1.434325e+03
  2.208234e+01    1.424601e+03
  2.213535e+01    1.416526e+03
  2.218835e+01    1.408144e+03
  2.224135e+01    1.398994e+03
  2.229436e+01    1.391921e+03
  2.234736e+01    1.384119e+03
  2.240037e+01    1.375239e+03
  2.245337e+01    1.367260e+03
  2.250637e+01    1.360424e+03
  2.255938e+01    1.352799e+03
  2.261238e+01    1.354193e+03
  2.266539e+01    1.356862e+03
  2.271839e+01    1.359442e+03
  2.277140e+01    1.355861e+03
  2.282440e+01    1.355792e+03
  2.287740e+01    1.353380e+03
  2.293041e+01    1.354861e+03
  2.298341e+01    1.350977e+03
  2.303642e+01    1.352722e+03
  2.308942e+01    1.349327e+03
  2.314242e+01    1.347211e+03
  2.319543e+01    1.344455e+03
  2.324843e+01    1.339728e+03
  2.330144e+01    1.337744e+03
  2.335444e+01    1.335237e+03
  2.340744e+01    1.332882e+03
  2.346045e+01    1.332798e+03
  2.351345e+01    1.328878e+03
  2.356646e+01    1.325431e+03
  2.361946e+01    1.323482e+03
  2.367246e+01    1.325354e+03
  2.372547e+01    1.318239e+03
  2.377847e+01    1.314610e+03
  2.383148e+01    1.309108e+03
  2.388448e+01    1.306901e+03
  2.393749e+01    1.302329e+03
  2.399049e+01    1.300921e+03
  2.404349e+01    1.296859e+03
  2.409650e+01    1.294533e+03
  2.414950e+01    1.288489e+03
  2.420251e+01    1.279581e+03
  2.425551e+01    1.275557e+03
  2.430851e+01    1.269371e+03
  2.436152e+01    1.265246e+03
  2.441452e+01    1.257971e+03
  2.446753e+01    1.252294e+03
  2.452053e+01    1.243677e+03
  2.457353e+01    1.239624e+03
  2.462654e+01    1.237119e+03
  2.467954e+01    1.229251e+03
  2.473255e+01    1.219676e+03
  2.478555e+01    1.210750e+03
  2.483855e+01    1.198216e+03
  2.489156e+01    1.193667e+03
  2.494456e+01    1.185665e+03
  2.499757e+01    1.177012e+03
  2.505057e+01    1.165453e+03
  2.510358e+01    1.161761e+03
  2.515658e+01    1.155798e+03
  2.520958e+01    1.149486e+03
  2.526259e+01    1.145105e+03
  2.531559e+01    1.139125e+03
  2.536860e+01    1.133057e+03
  2.542160e+01    1.128728e+03
  2.547460e+01    1.122614e+03
  2.552761e+01    1.113540e+03
  2.558061e+01    1.110199e+03
  2.563362e+01    1.106861e+03
  2.568662e+01    1.097536e+03
  2.573962e+01    1.090965e+03
  2.579263e+01    1.084388e+03
  2.584563e+01    1.074038e+03
  2.589864e+01    1.072477e+03
  2.595164e+01    1.069505e+03
  2.600465e+01    1.069646e+03
  2.605765e+01    1.064142e+03
  2.611065e+01    1.059918e+03
  2.616366e+01    1.057918e+03
  2.621666e+01    1.051962e+03
  2.626967e+01    1.036470e+03
  2.632267e+01    1.040883e+03
  2.637567e+01    1.037342e+03
  2.642868e+01    1.010204e+03
  2.648168e+01    1.012748e+03
