# == pyFAI calibration ==
# Distance Sample to Detector: 0.2945755399789714 m
# PONI: 2.880e-01, 2.450e-01 m
# Rotations: -0.007291 -0.010887 -0.000000 rad
# 
# == Fit2d calibration ==
# Distance Sample-beamCenter: 294.601 mm
# Center: x=1437.174, y=1655.617 pix
# Tilt: 0.751 deg  TiltPlanRot: -56.193 deg
# 
# Detector Pilatus CdTe 2M	 PixelSize= 1.720e-04, 1.720e-04 m
#    Detector has a mask: True 
#    Detector has a dark current: False 
#    detector has a flat field: False 
# 
# Wavelength: 2.0732883349524408e-11 m
# Mask applied: from detector
# Dark current applied: False
# Flat field applied: False
# Polarization factor: 0.9
# Normalization factor: 1.0
# --> /gpfs/current/raw/FMue_2/FMue_2_20231024_120911_00305.dat
#        q_A^-1             I 
  3.263564e-02             nan
  8.563974e-02             nan
  1.386438e-01             nan
  1.916479e-01             nan
  2.446520e-01    3.872487e+04
  2.976561e-01    2.986016e+04
  3.506602e-01    1.591579e+04
  4.036643e-01    1.113896e+04
  4.566684e-01    9.474714e+03
  5.096725e-01    9.015985e+03
  5.626766e-01    8.694815e+03
  6.156807e-01    8.341421e+03
  6.686848e-01    8.172093e+03
  7.216890e-01    8.228792e+03
  7.746931e-01    8.214128e+03
  8.276972e-01    8.294952e+03
  8.807013e-01    8.357581e+03
  9.337054e-01    8.498357e+03
  9.867095e-01    8.660805e+03
  1.039714e+00    8.908925e+03
  1.092718e+00    9.236742e+03
  1.145722e+00    9.717715e+03
  1.198726e+00    1.029977e+04
  1.251730e+00    1.100207e+04
  1.304734e+00    1.189960e+04
  1.357738e+00    1.275702e+04
  1.410742e+00    1.344822e+04
  1.463746e+00    1.377950e+04
  1.516750e+00    1.373801e+04
  1.569755e+00    1.325432e+04
  1.622759e+00    1.259844e+04
  1.675763e+00    1.174008e+04
  1.728767e+00    1.084826e+04
  1.781771e+00    1.004725e+04
  1.834775e+00    9.368708e+03
  1.887779e+00    8.803477e+03
  1.940783e+00    8.435748e+03
  1.993787e+00    8.111352e+03
  2.046791e+00    7.923791e+03
  2.099796e+00    7.857015e+03
  2.152800e+00    7.855167e+03
  2.205804e+00    7.901573e+03
  2.258808e+00    7.912991e+03
  2.311812e+00    7.885775e+03
  2.364816e+00    7.914839e+03
  2.417820e+00    8.184672e+03
  2.470824e+00    8.807313e+03
  2.523828e+00    9.825146e+03
  2.576832e+00    1.063522e+04
  2.629837e+00    9.548497e+03
  2.682841e+00    8.078701e+03
  2.735845e+00    7.527623e+03
  2.788849e+00    6.915371e+03
  2.841853e+00    6.619253e+03
  2.894857e+00    7.239735e+03
  2.947861e+00    9.218505e+03
  3.000865e+00    1.184811e+04
  3.053869e+00    1.261482e+04
  3.106874e+00    1.085979e+04
  3.159878e+00    9.730205e+03
  3.212882e+00    8.381228e+03
  3.265886e+00    6.421047e+03
  3.318890e+00    5.553039e+03
  3.371894e+00    5.415208e+03
  3.424898e+00    5.632867e+03
  3.477902e+00    6.131258e+03
  3.530906e+00    6.115252e+03
  3.583910e+00    5.454646e+03
  3.636915e+00    4.999927e+03
  3.689919e+00    4.873612e+03
  3.742923e+00    4.878371e+03
  3.795927e+00    4.955701e+03
  3.848931e+00    5.060134e+03
  3.901935e+00    5.229446e+03
  3.954939e+00    5.447336e+03
  4.007943e+00    5.765811e+03
  4.060947e+00    6.155869e+03
  4.113951e+00    6.650854e+03
  4.166956e+00    7.438557e+03
  4.219960e+00    8.279250e+03
  4.272964e+00    7.722708e+03
  4.325968e+00    6.931922e+03
  4.378972e+00    7.387208e+03
  4.431976e+00    9.457895e+03
  4.484980e+00    1.049640e+04
  4.537984e+00    8.322911e+03
  4.590988e+00    6.277792e+03
  4.643992e+00    5.546837e+03
  4.696997e+00    5.360832e+03
  4.750001e+00    5.320889e+03
  4.803005e+00    5.374549e+03
  4.856009e+00    5.603474e+03
  4.909013e+00    6.123428e+03
  4.962017e+00    6.692306e+03
  5.015021e+00    6.452994e+03
  5.068025e+00    5.845275e+03
  5.121029e+00    5.611041e+03
  5.174033e+00    5.457804e+03
  5.227038e+00    5.075165e+03
  5.280042e+00    4.685027e+03
  5.333046e+00    4.429339e+03
  5.386050e+00    4.283186e+03
  5.439054e+00    4.279522e+03
  5.492058e+00    4.243189e+03
  5.545062e+00    3.964760e+03
  5.598066e+00    3.754229e+03
  5.651070e+00    3.704050e+03
  5.704074e+00    3.764940e+03
  5.757079e+00    4.018037e+03
  5.810083e+00    4.464232e+03
  5.863087e+00    4.531372e+03
  5.916091e+00    4.228942e+03
  5.969095e+00    4.111101e+03
  6.022099e+00    4.112732e+03
  6.075103e+00    4.149123e+03
  6.128107e+00    4.043966e+03
  6.181111e+00    3.856872e+03
  6.234115e+00    3.840324e+03
  6.287120e+00    3.915802e+03
  6.340124e+00    3.915967e+03
  6.393128e+00    3.855224e+03
  6.446132e+00    3.776167e+03
  6.499136e+00    3.738559e+03
  6.552140e+00    3.697469e+03
  6.605144e+00    3.694195e+03
  6.658148e+00    3.710753e+03
  6.711152e+00    3.622725e+03
  6.764156e+00    3.501129e+03
  6.817161e+00    3.398907e+03
  6.870165e+00    3.307448e+03
  6.923169e+00    3.254098e+03
  6.976173e+00    3.295692e+03
  7.029177e+00    3.368090e+03
  7.082181e+00    3.390514e+03
  7.135185e+00    3.335559e+03
  7.188189e+00    3.287584e+03
  7.241193e+00    3.293695e+03
  7.294197e+00    3.347128e+03
  7.347202e+00    3.332168e+03
  7.400206e+00    3.287779e+03
  7.453210e+00    3.267010e+03
  7.506214e+00    3.288649e+03
  7.559218e+00    3.328803e+03
  7.612222e+00    3.447380e+03
  7.665226e+00    3.652622e+03
  7.718230e+00    3.834287e+03
  7.771234e+00    3.789173e+03
  7.824239e+00    3.593489e+03
  7.877243e+00    3.426906e+03
  7.930247e+00    3.251621e+03
  7.983251e+00    3.140460e+03
  8.036255e+00    3.097322e+03
  8.089259e+00    3.080332e+03
  8.142263e+00    3.080487e+03
  8.195267e+00    3.072881e+03
  8.248271e+00    3.062331e+03
  8.301275e+00    3.044561e+03
  8.354280e+00    3.031941e+03
  8.407284e+00    3.029547e+03
  8.460288e+00    3.023107e+03
  8.513292e+00    3.017030e+03
  8.566296e+00    3.044981e+03
  8.619300e+00    3.059607e+03
  8.672304e+00    3.036411e+03
  8.725308e+00    3.009339e+03
  8.778312e+00    2.990335e+03
  8.831316e+00    2.983332e+03
  8.884321e+00    2.986853e+03
  8.937325e+00    2.978069e+03
  8.990329e+00    2.933232e+03
  9.043333e+00    2.874635e+03
  9.096337e+00    2.845206e+03
  9.149341e+00    2.828618e+03
  9.202345e+00    2.781977e+03
  9.255349e+00    2.738774e+03
  9.308353e+00    2.710604e+03
  9.361357e+00    2.699507e+03
  9.414362e+00    2.687118e+03
  9.467366e+00    2.686375e+03
  9.520370e+00    2.663905e+03
  9.573374e+00    2.632956e+03
  9.626378e+00    2.621365e+03
  9.679382e+00    2.615284e+03
  9.732386e+00    2.617208e+03
  9.785390e+00    2.614075e+03
  9.838394e+00    2.612370e+03
  9.891398e+00    2.620079e+03
  9.944403e+00    2.617302e+03
  9.997407e+00    2.600942e+03
  1.005041e+01    2.570917e+03
  1.010341e+01    2.530766e+03
  1.015642e+01    2.509330e+03
  1.020942e+01    2.501805e+03
  1.026243e+01    2.498700e+03
  1.031543e+01    2.520410e+03
  1.036844e+01    2.565007e+03
  1.042144e+01    2.580190e+03
  1.047444e+01    2.573115e+03
  1.052745e+01    2.558702e+03
  1.058045e+01    2.544520e+03
  1.063346e+01    2.521895e+03
  1.068646e+01    2.500664e+03
  1.073946e+01    2.481276e+03
  1.079247e+01    2.466506e+03
  1.084547e+01    2.453870e+03
  1.089848e+01    2.452260e+03
  1.095148e+01    2.452671e+03
  1.100448e+01    2.445981e+03
  1.105749e+01    2.442623e+03
  1.111049e+01    2.440594e+03
  1.116350e+01    2.428626e+03
  1.121650e+01    2.418036e+03
  1.126951e+01    2.402084e+03
  1.132251e+01    2.392307e+03
  1.137551e+01    2.384561e+03
  1.142852e+01    2.384398e+03
  1.148152e+01    2.379538e+03
  1.153453e+01    2.377810e+03
  1.158753e+01    2.373349e+03
  1.164053e+01    2.369567e+03
  1.169354e+01    2.368821e+03
  1.174654e+01    2.390320e+03
  1.179955e+01    2.380331e+03
  1.185255e+01    2.370634e+03
  1.190555e+01    2.354179e+03
  1.195856e+01    2.340955e+03
  1.201156e+01    2.332676e+03
  1.206457e+01    2.322589e+03
  1.211757e+01    2.326413e+03
  1.217057e+01    2.329481e+03
  1.222358e+01    2.324702e+03
  1.227658e+01    2.323122e+03
  1.232959e+01    2.323878e+03
  1.238259e+01    2.318059e+03
  1.243560e+01    2.320457e+03
  1.248860e+01    2.319023e+03
  1.254160e+01    2.324792e+03
  1.259461e+01    2.320780e+03
  1.264761e+01    2.312451e+03
  1.270062e+01    2.298561e+03
  1.275362e+01    2.286494e+03
  1.280662e+01    2.277980e+03
  1.285963e+01    2.268994e+03
  1.291263e+01    2.258900e+03
  1.296564e+01    2.250773e+03
  1.301864e+01    2.244513e+03
  1.307164e+01    2.237167e+03
  1.312465e+01    2.230816e+03
  1.317765e+01    2.226632e+03
  1.323066e+01    2.204918e+03
  1.328366e+01    2.194656e+03
  1.333667e+01    2.188744e+03
  1.338967e+01    2.184168e+03
  1.344267e+01    2.197762e+03
  1.349568e+01    2.195010e+03
  1.354868e+01    2.186497e+03
  1.360169e+01    2.174421e+03
  1.365469e+01    2.160290e+03
  1.370769e+01    2.151214e+03
  1.376070e+01    2.137634e+03
  1.381370e+01    2.131948e+03
  1.386671e+01    2.123458e+03
  1.391971e+01    2.114813e+03
  1.397271e+01    2.114007e+03
  1.402572e+01    2.109183e+03
  1.407872e+01    2.100315e+03
  1.413173e+01    2.093811e+03
  1.418473e+01    2.091984e+03
  1.423773e+01    2.088649e+03
  1.429074e+01    2.082412e+03
  1.434374e+01    2.082008e+03
  1.439675e+01    2.075964e+03
  1.444975e+01    2.072677e+03
  1.450276e+01    2.067490e+03
  1.455576e+01    2.061413e+03
  1.460876e+01    2.056625e+03
  1.466177e+01    2.053135e+03
  1.471477e+01    2.052821e+03
  1.476778e+01    2.054254e+03
  1.482078e+01    2.051454e+03
  1.487378e+01    2.047814e+03
  1.492679e+01    2.041483e+03
  1.497979e+01    2.040193e+03
  1.503280e+01    2.036334e+03
  1.508580e+01    2.035639e+03
  1.513880e+01    2.033756e+03
  1.519181e+01    2.039878e+03
  1.524481e+01    2.064027e+03
  1.529782e+01    2.044693e+03
  1.535082e+01    2.034358e+03
  1.540382e+01    2.028118e+03
  1.545683e+01    2.019409e+03
  1.550983e+01    2.023958e+03
  1.556284e+01    2.018073e+03
  1.561584e+01    2.013220e+03
  1.566885e+01    2.010095e+03
  1.572185e+01    2.006797e+03
  1.577485e+01    2.005915e+03
  1.582786e+01    2.000182e+03
  1.588086e+01    1.997050e+03
  1.593387e+01    1.997069e+03
  1.598687e+01    1.993177e+03
  1.603987e+01    1.985315e+03
  1.609288e+01    1.977029e+03
  1.614588e+01    1.969715e+03
  1.619889e+01    1.973579e+03
  1.625189e+01    1.974907e+03
  1.630489e+01    1.972861e+03
  1.635790e+01    1.967422e+03
  1.641090e+01    1.964527e+03
  1.646391e+01    1.958202e+03
  1.651691e+01    1.955244e+03
  1.656992e+01    1.950277e+03
  1.662292e+01    1.945057e+03
  1.667592e+01    1.945386e+03
  1.672893e+01    1.941338e+03
  1.678193e+01    1.941223e+03
  1.683494e+01    1.937028e+03
  1.688794e+01    1.934905e+03
  1.694094e+01    1.930568e+03
  1.699395e+01    1.928356e+03
  1.704695e+01    1.923532e+03
  1.709996e+01    1.921541e+03
  1.715296e+01    1.915953e+03
  1.720596e+01    1.914570e+03
  1.725897e+01    1.910994e+03
  1.731197e+01    1.908641e+03
  1.736498e+01    1.902666e+03
  1.741798e+01    1.900963e+03
  1.747098e+01    1.900948e+03
  1.752399e+01    1.897214e+03
  1.757699e+01    1.893573e+03
  1.763000e+01    1.888441e+03
  1.768300e+01    1.884060e+03
  1.773601e+01    1.879374e+03
  1.778901e+01    1.876694e+03
  1.784201e+01    1.869087e+03
  1.789502e+01    1.868212e+03
  1.794802e+01    1.861863e+03
  1.800103e+01    1.859645e+03
  1.805403e+01    1.856489e+03
  1.810703e+01    1.850411e+03
  1.816004e+01    1.848253e+03
  1.821304e+01    1.844274e+03
  1.826605e+01    1.847863e+03
  1.831905e+01    1.838590e+03
  1.837205e+01    1.835565e+03
  1.842506e+01    1.832476e+03
  1.847806e+01    1.830071e+03
  1.853107e+01    1.828975e+03
  1.858407e+01    1.827950e+03
  1.863708e+01    1.828677e+03
  1.869008e+01    1.839914e+03
  1.874308e+01    1.829875e+03
  1.879609e+01    1.824978e+03
  1.884909e+01    1.820470e+03
  1.890210e+01    1.816852e+03
  1.895510e+01    1.809463e+03
  1.900810e+01    1.808134e+03
  1.906111e+01    1.799426e+03
  1.911411e+01    1.793309e+03
  1.916712e+01    1.789138e+03
  1.922012e+01    1.784484e+03
  1.927312e+01    1.777761e+03
  1.932613e+01    1.776047e+03
  1.937913e+01    1.769526e+03
  1.943214e+01    1.764226e+03
  1.948514e+01    1.761276e+03
  1.953814e+01    1.755759e+03
  1.959115e+01    1.751217e+03
  1.964415e+01    1.745744e+03
  1.969716e+01    1.742777e+03
  1.975016e+01    1.738667e+03
  1.980317e+01    1.732548e+03
  1.985617e+01    1.726957e+03
  1.990917e+01    1.723872e+03
  1.996218e+01    1.717347e+03
  2.001518e+01    1.713897e+03
  2.006819e+01    1.706884e+03
  2.012119e+01    1.700691e+03
  2.017419e+01    1.695816e+03
  2.022720e+01    1.690020e+03
  2.028020e+01    1.683063e+03
  2.033321e+01    1.677911e+03
  2.038621e+01    1.670660e+03
  2.043921e+01    1.668611e+03
  2.049222e+01    1.664166e+03
  2.054522e+01    1.657406e+03
  2.059823e+01    1.653078e+03
  2.065123e+01    1.647115e+03
  2.070424e+01    1.645329e+03
  2.075724e+01    1.644091e+03
  2.081024e+01    1.651138e+03
  2.086325e+01    1.640172e+03
  2.091625e+01    1.624882e+03
  2.096926e+01    1.610219e+03
  2.102226e+01    1.598725e+03
  2.107526e+01    1.589995e+03
  2.112827e+01    1.580078e+03
  2.118127e+01    1.572135e+03
  2.123428e+01    1.561555e+03
  2.128728e+01    1.553560e+03
  2.134028e+01    1.544503e+03
  2.139329e+01    1.535005e+03
  2.144629e+01    1.524947e+03
  2.149930e+01    1.517388e+03
  2.155230e+01    1.508566e+03
  2.160530e+01    1.499786e+03
  2.165831e+01    1.491310e+03
  2.171131e+01    1.484748e+03
  2.176432e+01    1.479452e+03
  2.181732e+01    1.468014e+03
  2.187033e+01    1.460365e+03
  2.192333e+01    1.453482e+03
  2.197633e+01    1.444481e+03
  2.202934e+01    1.435923e+03
  2.208234e+01    1.426680e+03
  2.213535e+01    1.418549e+03
  2.218835e+01    1.410052e+03
  2.224135e+01    1.401661e+03
  2.229436e+01    1.393864e+03
  2.234736e+01    1.386563e+03
  2.240037e+01    1.377629e+03
  2.245337e+01    1.369890e+03
  2.250637e+01    1.362841e+03
  2.255938e+01    1.353465e+03
  2.261238e+01    1.359256e+03
  2.266539e+01    1.358814e+03
  2.271839e+01    1.360379e+03
  2.277140e+01    1.360090e+03
  2.282440e+01    1.357437e+03
  2.287740e+01    1.356824e+03
  2.293041e+01    1.355347e+03
  2.298341e+01    1.355146e+03
  2.303642e+01    1.354668e+03
  2.308942e+01    1.351407e+03
  2.314242e+01    1.349205e+03
  2.319543e+01    1.346190e+03
  2.324843e+01    1.339466e+03
  2.330144e+01    1.340333e+03
  2.335444e+01    1.337779e+03
  2.340744e+01    1.335949e+03
  2.346045e+01    1.334030e+03
  2.351345e+01    1.333752e+03
  2.356646e+01    1.328051e+03
  2.361946e+01    1.329005e+03
  2.367246e+01    1.328314e+03
  2.372547e+01    1.322073e+03
  2.377847e+01    1.316685e+03
  2.383148e+01    1.313057e+03
  2.388448e+01    1.309420e+03
  2.393749e+01    1.304948e+03
  2.399049e+01    1.302082e+03
  2.404349e+01    1.299346e+03
  2.409650e+01    1.295130e+03
  2.414950e+01    1.289857e+03
  2.420251e+01    1.282148e+03
  2.425551e+01    1.277487e+03
  2.430851e+01    1.271355e+03
  2.436152e+01    1.268613e+03
  2.441452e+01    1.257883e+03
  2.446753e+01    1.252945e+03
  2.452053e+01    1.246433e+03
  2.457353e+01    1.243186e+03
  2.462654e+01    1.241406e+03
  2.467954e+01    1.230320e+03
  2.473255e+01    1.219964e+03
  2.478555e+01    1.214340e+03
  2.483855e+01    1.199758e+03
  2.489156e+01    1.190829e+03
  2.494456e+01    1.184603e+03
  2.499757e+01    1.179202e+03
  2.505057e+01    1.168192e+03
  2.510358e+01    1.161918e+03
  2.515658e+01    1.156451e+03
  2.520958e+01    1.152694e+03
  2.526259e+01    1.145477e+03
  2.531559e+01    1.142374e+03
  2.536860e+01    1.132414e+03
  2.542160e+01    1.127709e+03
  2.547460e+01    1.122980e+03
  2.552761e+01    1.111279e+03
  2.558061e+01    1.111815e+03
  2.563362e+01    1.108591e+03
  2.568662e+01    1.100005e+03
  2.573962e+01    1.090229e+03
  2.579263e+01    1.081162e+03
  2.584563e+01    1.076236e+03
  2.589864e+01    1.074163e+03
  2.595164e+01    1.069982e+03
  2.600465e+01    1.071876e+03
  2.605765e+01    1.069615e+03
  2.611065e+01    1.062828e+03
  2.616366e+01    1.054344e+03
  2.621666e+01    1.056921e+03
  2.626967e+01    1.041246e+03
  2.632267e+01    1.042050e+03
  2.637567e+01    1.036773e+03
  2.642868e+01    1.021026e+03
  2.648168e+01    9.925751e+02
