# == pyFAI calibration ==
# Distance Sample to Detector: 0.2945755399789714 m
# PONI: 2.880e-01, 2.450e-01 m
# Rotations: -0.007291 -0.010887 -0.000000 rad
# 
# == Fit2d calibration ==
# Distance Sample-beamCenter: 294.601 mm
# Center: x=1437.174, y=1655.617 pix
# Tilt: 0.751 deg  TiltPlanRot: -56.193 deg
# 
# Detector Pilatus CdTe 2M	 PixelSize= 1.720e-04, 1.720e-04 m
#    Detector has a mask: True 
#    Detector has a dark current: False 
#    detector has a flat field: False 
# 
# Wavelength: 2.0732883349524408e-11 m
# Mask applied: from detector
# Dark current applied: False
# Flat field applied: False
# Polarization factor: 0.9
# Normalization factor: 1.0
# --> /gpfs/current/raw/FMue_2/FMue_2_20231024_120911_00240.dat
#        q_A^-1             I 
  3.263564e-02             nan
  8.563974e-02             nan
  1.386438e-01             nan
  1.916479e-01             nan
  2.446520e-01    3.854574e+04
  2.976561e-01    2.978909e+04
  3.506602e-01    1.592774e+04
  4.036643e-01    1.116866e+04
  4.566684e-01    9.527935e+03
  5.096725e-01    9.089344e+03
  5.626766e-01    8.767066e+03
  6.156807e-01    8.399680e+03
  6.686848e-01    8.228921e+03
  7.216890e-01    8.260647e+03
  7.746931e-01    8.261231e+03
  8.276972e-01    8.334485e+03
  8.807013e-01    8.399840e+03
  9.337054e-01    8.541832e+03
  9.867095e-01    8.687621e+03
  1.039714e+00    8.950353e+03
  1.092718e+00    9.282480e+03
  1.145722e+00    9.756909e+03
  1.198726e+00    1.036009e+04
  1.251730e+00    1.104990e+04
  1.304734e+00    1.195117e+04
  1.357738e+00    1.280727e+04
  1.410742e+00    1.349687e+04
  1.463746e+00    1.383814e+04
  1.516750e+00    1.379054e+04
  1.569755e+00    1.330872e+04
  1.622759e+00    1.265925e+04
  1.675763e+00    1.179826e+04
  1.728767e+00    1.090202e+04
  1.781771e+00    1.010728e+04
  1.834775e+00    9.449723e+03
  1.887779e+00    8.890029e+03
  1.940783e+00    8.525104e+03
  1.993787e+00    8.227204e+03
  2.046791e+00    8.051721e+03
  2.099796e+00    7.990705e+03
  2.152800e+00    8.004095e+03
  2.205804e+00    8.077875e+03
  2.258808e+00    8.139760e+03
  2.311812e+00    8.173444e+03
  2.364816e+00    8.259068e+03
  2.417820e+00    8.594850e+03
  2.470824e+00    9.313928e+03
  2.523828e+00    1.071554e+04
  2.576832e+00    1.207289e+04
  2.629837e+00    1.031004e+04
  2.682841e+00    8.305470e+03
  2.735845e+00    7.687001e+03
  2.788849e+00    7.077853e+03
  2.841853e+00    6.824490e+03
  2.894857e+00    7.751479e+03
  2.947861e+00    1.064778e+04
  3.000865e+00    1.220737e+04
  3.053869e+00    1.024180e+04
  3.106874e+00    8.929982e+03
  3.159878e+00    8.978604e+03
  3.212882e+00    7.981798e+03
  3.265886e+00    6.106539e+03
  3.318890e+00    5.260849e+03
  3.371894e+00    5.074017e+03
  3.424898e+00    5.094761e+03
  3.477902e+00    5.221407e+03
  3.530906e+00    5.171267e+03
  3.583910e+00    4.947438e+03
  3.636915e+00    4.819689e+03
  3.689919e+00    4.807416e+03
  3.742923e+00    4.859505e+03
  3.795927e+00    4.969381e+03
  3.848931e+00    5.102847e+03
  3.901935e+00    5.278912e+03
  3.954939e+00    5.514648e+03
  4.007943e+00    5.864034e+03
  4.060947e+00    6.348314e+03
  4.113951e+00    7.079611e+03
  4.166956e+00    8.558269e+03
  4.219960e+00    9.988756e+03
  4.272964e+00    8.571774e+03
  4.325968e+00    7.057633e+03
  4.378972e+00    7.388677e+03
  4.431976e+00    9.472090e+03
  4.484980e+00    1.052173e+04
  4.537984e+00    8.377582e+03
  4.590988e+00    6.362065e+03
  4.643992e+00    5.646697e+03
  4.696997e+00    5.462177e+03
  4.750001e+00    5.435553e+03
  4.803005e+00    5.514923e+03
  4.856009e+00    5.796853e+03
  4.909013e+00    6.337771e+03
  4.962017e+00    6.585593e+03
  5.015021e+00    6.116059e+03
  5.068025e+00    5.750797e+03
  5.121029e+00    5.784263e+03
  5.174033e+00    5.739049e+03
  5.227038e+00    5.182682e+03
  5.280042e+00    4.680568e+03
  5.333046e+00    4.402321e+03
  5.386050e+00    4.252139e+03
  5.439054e+00    4.248007e+03
  5.492058e+00    4.207883e+03
  5.545062e+00    3.914989e+03
  5.598066e+00    3.700728e+03
  5.651070e+00    3.624576e+03
  5.704074e+00    3.631694e+03
  5.757079e+00    3.723440e+03
  5.810083e+00    3.885966e+03
  5.863087e+00    3.961743e+03
  5.916091e+00    4.004210e+03
  5.969095e+00    4.077624e+03
  6.022099e+00    4.042559e+03
  6.075103e+00    3.980306e+03
  6.128107e+00    3.893916e+03
  6.181111e+00    3.824317e+03
  6.234115e+00    3.871790e+03
  6.287120e+00    3.980996e+03
  6.340124e+00    4.012177e+03
  6.393128e+00    3.994477e+03
  6.446132e+00    3.980273e+03
  6.499136e+00    3.975739e+03
  6.552140e+00    3.910305e+03
  6.605144e+00    3.931385e+03
  6.658148e+00    3.981097e+03
  6.711152e+00    3.814581e+03
  6.764156e+00    3.593374e+03
  6.817161e+00    3.450210e+03
  6.870165e+00    3.349231e+03
  6.923169e+00    3.289907e+03
  6.976173e+00    3.319357e+03
  7.029177e+00    3.385247e+03
  7.082181e+00    3.420319e+03
  7.135185e+00    3.391924e+03
  7.188189e+00    3.378815e+03
  7.241193e+00    3.444130e+03
  7.294197e+00    3.532130e+03
  7.347202e+00    3.462006e+03
  7.400206e+00    3.342314e+03
  7.453210e+00    3.284005e+03
  7.506214e+00    3.282843e+03
  7.559218e+00    3.302293e+03
  7.612222e+00    3.369972e+03
  7.665226e+00    3.534808e+03
  7.718230e+00    3.744573e+03
  7.771234e+00    3.709400e+03
  7.824239e+00    3.470755e+03
  7.877243e+00    3.278008e+03
  7.930247e+00    3.152159e+03
  7.983251e+00    3.091568e+03
  8.036255e+00    3.071128e+03
  8.089259e+00    3.068925e+03
  8.142263e+00    3.078207e+03
  8.195267e+00    3.080299e+03
  8.248271e+00    3.077081e+03
  8.301275e+00    3.065636e+03
  8.354280e+00    3.063951e+03
  8.407284e+00    3.070493e+03
  8.460288e+00    3.059795e+03
  8.513292e+00    3.032649e+03
  8.566296e+00    3.032143e+03
  8.619300e+00    3.034036e+03
  8.672304e+00    3.031627e+03
  8.725308e+00    3.041246e+03
  8.778312e+00    3.050375e+03
  8.831316e+00    3.049506e+03
  8.884321e+00    3.051853e+03
  8.937325e+00    3.033207e+03
  8.990329e+00    2.963003e+03
  9.043333e+00    2.874449e+03
  9.096337e+00    2.819015e+03
  9.149341e+00    2.790053e+03
  9.202345e+00    2.763197e+03
  9.255349e+00    2.746033e+03
  9.308353e+00    2.735879e+03
  9.361357e+00    2.738938e+03
  9.414362e+00    2.732792e+03
  9.467366e+00    2.728082e+03
  9.520370e+00    2.696912e+03
  9.573374e+00    2.665668e+03
  9.626378e+00    2.651452e+03
  9.679382e+00    2.650638e+03
  9.732386e+00    2.655449e+03
  9.785390e+00    2.650778e+03
  9.838394e+00    2.644345e+03
  9.891398e+00    2.640212e+03
  9.944403e+00    2.624783e+03
  9.997407e+00    2.605963e+03
  1.005041e+01    2.576894e+03
  1.010341e+01    2.536485e+03
  1.015642e+01    2.517196e+03
  1.020942e+01    2.508896e+03
  1.026243e+01    2.504631e+03
  1.031543e+01    2.515182e+03
  1.036844e+01    2.542661e+03
  1.042144e+01    2.544823e+03
  1.047444e+01    2.546256e+03
  1.052745e+01    2.541075e+03
  1.058045e+01    2.535402e+03
  1.063346e+01    2.525665e+03
  1.068646e+01    2.512291e+03
  1.073946e+01    2.494458e+03
  1.079247e+01    2.482446e+03
  1.084547e+01    2.468360e+03
  1.089848e+01    2.468859e+03
  1.095148e+01    2.468660e+03
  1.100448e+01    2.461845e+03
  1.105749e+01    2.460378e+03
  1.111049e+01    2.459994e+03
  1.116350e+01    2.450300e+03
  1.121650e+01    2.435041e+03
  1.126951e+01    2.420826e+03
  1.132251e+01    2.409690e+03
  1.137551e+01    2.400094e+03
  1.142852e+01    2.395194e+03
  1.148152e+01    2.383379e+03
  1.153453e+01    2.376403e+03
  1.158753e+01    2.371114e+03
  1.164053e+01    2.366810e+03
  1.169354e+01    2.368918e+03
  1.174654e+01    2.395623e+03
  1.179955e+01    2.388737e+03
  1.185255e+01    2.382305e+03
  1.190555e+01    2.368408e+03
  1.195856e+01    2.355694e+03
  1.201156e+01    2.349632e+03
  1.206457e+01    2.340595e+03
  1.211757e+01    2.344611e+03
  1.217057e+01    2.346209e+03
  1.222358e+01    2.344444e+03
  1.227658e+01    2.342022e+03
  1.232959e+01    2.341444e+03
  1.238259e+01    2.331133e+03
  1.243560e+01    2.331628e+03
  1.248860e+01    2.329688e+03
  1.254160e+01    2.331388e+03
  1.259461e+01    2.330276e+03
  1.264761e+01    2.319572e+03
  1.270062e+01    2.309456e+03
  1.275362e+01    2.298619e+03
  1.280662e+01    2.290738e+03
  1.285963e+01    2.281723e+03
  1.291263e+01    2.272871e+03
  1.296564e+01    2.260333e+03
  1.301864e+01    2.254580e+03
  1.307164e+01    2.245678e+03
  1.312465e+01    2.236925e+03
  1.317765e+01    2.228481e+03
  1.323066e+01    2.209886e+03
  1.328366e+01    2.204920e+03
  1.333667e+01    2.197040e+03
  1.338967e+01    2.192672e+03
  1.344267e+01    2.204178e+03
  1.349568e+01    2.200176e+03
  1.354868e+01    2.195740e+03
  1.360169e+01    2.182001e+03
  1.365469e+01    2.168430e+03
  1.370769e+01    2.161305e+03
  1.376070e+01    2.150306e+03
  1.381370e+01    2.140968e+03
  1.386671e+01    2.135212e+03
  1.391971e+01    2.128017e+03
  1.397271e+01    2.123596e+03
  1.402572e+01    2.117525e+03
  1.407872e+01    2.112422e+03
  1.413173e+01    2.106737e+03
  1.418473e+01    2.103768e+03
  1.423773e+01    2.096934e+03
  1.429074e+01    2.090494e+03
  1.434374e+01    2.090214e+03
  1.439675e+01    2.083620e+03
  1.444975e+01    2.081914e+03
  1.450276e+01    2.074860e+03
  1.455576e+01    2.071682e+03
  1.460876e+01    2.068208e+03
  1.466177e+01    2.065187e+03
  1.471477e+01    2.064722e+03
  1.476778e+01    2.066276e+03
  1.482078e+01    2.065104e+03
  1.487378e+01    2.059068e+03
  1.492679e+01    2.055271e+03
  1.497979e+01    2.051235e+03
  1.503280e+01    2.049922e+03
  1.508580e+01    2.047797e+03
  1.513880e+01    2.045058e+03
  1.519181e+01    2.050341e+03
  1.524481e+01    2.073179e+03
  1.529782e+01    2.054668e+03
  1.535082e+01    2.043198e+03
  1.540382e+01    2.037438e+03
  1.545683e+01    2.029819e+03
  1.550983e+01    2.033236e+03
  1.556284e+01    2.029368e+03
  1.561584e+01    2.023491e+03
  1.566885e+01    2.019699e+03
  1.572185e+01    2.016111e+03
  1.577485e+01    2.014612e+03
  1.582786e+01    2.009139e+03
  1.588086e+01    2.007042e+03
  1.593387e+01    2.004156e+03
  1.598687e+01    2.000928e+03
  1.603987e+01    1.993812e+03
  1.609288e+01    1.986596e+03
  1.614588e+01    1.978521e+03
  1.619889e+01    1.981313e+03
  1.625189e+01    1.984340e+03
  1.630489e+01    1.981376e+03
  1.635790e+01    1.978422e+03
  1.641090e+01    1.974243e+03
  1.646391e+01    1.966970e+03
  1.651691e+01    1.966585e+03
  1.656992e+01    1.959840e+03
  1.662292e+01    1.955268e+03
  1.667592e+01    1.955110e+03
  1.672893e+01    1.952708e+03
  1.678193e+01    1.951326e+03
  1.683494e+01    1.946323e+03
  1.688794e+01    1.946854e+03
  1.694094e+01    1.944089e+03
  1.699395e+01    1.940067e+03
  1.704695e+01    1.934967e+03
  1.709996e+01    1.932203e+03
  1.715296e+01    1.926973e+03
  1.720596e+01    1.924802e+03
  1.725897e+01    1.921049e+03
  1.731197e+01    1.918890e+03
  1.736498e+01    1.913144e+03
  1.741798e+01    1.911010e+03
  1.747098e+01    1.911363e+03
  1.752399e+01    1.908157e+03
  1.757699e+01    1.903329e+03
  1.763000e+01    1.897948e+03
  1.768300e+01    1.892485e+03
  1.773601e+01    1.891800e+03
  1.778901e+01    1.885914e+03
  1.784201e+01    1.878744e+03
  1.789502e+01    1.878324e+03
  1.794802e+01    1.871255e+03
  1.800103e+01    1.869677e+03
  1.805403e+01    1.866059e+03
  1.810703e+01    1.860608e+03
  1.816004e+01    1.855291e+03
  1.821304e+01    1.854072e+03
  1.826605e+01    1.855288e+03
  1.831905e+01    1.848185e+03
  1.837205e+01    1.844996e+03
  1.842506e+01    1.841564e+03
  1.847806e+01    1.840555e+03
  1.853107e+01    1.837064e+03
  1.858407e+01    1.836917e+03
  1.863708e+01    1.838469e+03
  1.869008e+01    1.850784e+03
  1.874308e+01    1.841509e+03
  1.879609e+01    1.835250e+03
  1.884909e+01    1.830146e+03
  1.890210e+01    1.827870e+03
  1.895510e+01    1.819897e+03
  1.900810e+01    1.816949e+03
  1.906111e+01    1.811583e+03
  1.911411e+01    1.803608e+03
  1.916712e+01    1.800357e+03
  1.922012e+01    1.795343e+03
  1.927312e+01    1.788130e+03
  1.932613e+01    1.786665e+03
  1.937913e+01    1.779323e+03
  1.943214e+01    1.776244e+03
  1.948514e+01    1.770880e+03
  1.953814e+01    1.766078e+03
  1.959115e+01    1.761905e+03
  1.964415e+01    1.757008e+03
  1.969716e+01    1.753460e+03
  1.975016e+01    1.748840e+03
  1.980317e+01    1.745302e+03
  1.985617e+01    1.738967e+03
  1.990917e+01    1.732511e+03
  1.996218e+01    1.728770e+03
  2.001518e+01    1.723638e+03
  2.006819e+01    1.718431e+03
  2.012119e+01    1.711139e+03
  2.017419e+01    1.707295e+03
  2.022720e+01    1.701113e+03
  2.028020e+01    1.694076e+03
  2.033321e+01    1.687059e+03
  2.038621e+01    1.683331e+03
  2.043921e+01    1.677037e+03
  2.049222e+01    1.673394e+03
  2.054522e+01    1.667623e+03
  2.059823e+01    1.663462e+03
  2.065123e+01    1.657466e+03
  2.070424e+01    1.654537e+03
  2.075724e+01    1.653830e+03
  2.081024e+01    1.659871e+03
  2.086325e+01    1.649970e+03
  2.091625e+01    1.633683e+03
  2.096926e+01    1.619600e+03
  2.102226e+01    1.608363e+03
  2.107526e+01    1.599818e+03
  2.112827e+01    1.588089e+03
  2.118127e+01    1.581315e+03
  2.123428e+01    1.572748e+03
  2.128728e+01    1.563145e+03
  2.134028e+01    1.553243e+03
  2.139329e+01    1.542922e+03
  2.144629e+01    1.534423e+03
  2.149930e+01    1.526609e+03
  2.155230e+01    1.516102e+03
  2.160530e+01    1.510449e+03
  2.165831e+01    1.500183e+03
  2.171131e+01    1.494346e+03
  2.176432e+01    1.488546e+03
  2.181732e+01    1.478295e+03
  2.187033e+01    1.469356e+03
  2.192333e+01    1.461895e+03
  2.197633e+01    1.453052e+03
  2.202934e+01    1.446507e+03
  2.208234e+01    1.435182e+03
  2.213535e+01    1.427045e+03
  2.218835e+01    1.417508e+03
  2.224135e+01    1.410016e+03
  2.229436e+01    1.402111e+03
  2.234736e+01    1.395298e+03
  2.240037e+01    1.385138e+03
  2.245337e+01    1.376496e+03
  2.250637e+01    1.370297e+03
  2.255938e+01    1.362269e+03
  2.261238e+01    1.365421e+03
  2.266539e+01    1.365740e+03
  2.271839e+01    1.367562e+03
  2.277140e+01    1.364324e+03
  2.282440e+01    1.365020e+03
  2.287740e+01    1.362797e+03
  2.293041e+01    1.363506e+03
  2.298341e+01    1.362317e+03
  2.303642e+01    1.360782e+03
  2.308942e+01    1.357651e+03
  2.314242e+01    1.356899e+03
  2.319543e+01    1.353706e+03
  2.324843e+01    1.347251e+03
  2.330144e+01    1.346885e+03
  2.335444e+01    1.344219e+03
  2.340744e+01    1.344750e+03
  2.346045e+01    1.340337e+03
  2.351345e+01    1.337748e+03
  2.356646e+01    1.336225e+03
  2.361946e+01    1.335209e+03
  2.367246e+01    1.334722e+03
  2.372547e+01    1.327497e+03
  2.377847e+01    1.323328e+03
  2.383148e+01    1.320127e+03
  2.388448e+01    1.315856e+03
  2.393749e+01    1.313487e+03
  2.399049e+01    1.310810e+03
  2.404349e+01    1.308040e+03
  2.409650e+01    1.302348e+03
  2.414950e+01    1.295655e+03
  2.420251e+01    1.288962e+03
  2.425551e+01    1.284359e+03
  2.430851e+01    1.279931e+03
  2.436152e+01    1.272225e+03
  2.441452e+01    1.267659e+03
  2.446753e+01    1.262418e+03
  2.452053e+01    1.253735e+03
  2.457353e+01    1.250719e+03
  2.462654e+01    1.247250e+03
  2.467954e+01    1.236805e+03
  2.473255e+01    1.230778e+03
  2.478555e+01    1.219583e+03
  2.483855e+01    1.207596e+03
  2.489156e+01    1.202266e+03
  2.494456e+01    1.189371e+03
  2.499757e+01    1.185289e+03
  2.505057e+01    1.174270e+03
  2.510358e+01    1.170431e+03
  2.515658e+01    1.164403e+03
  2.520958e+01    1.158389e+03
  2.526259e+01    1.153350e+03
  2.531559e+01    1.145403e+03
  2.536860e+01    1.140983e+03
  2.542160e+01    1.136476e+03
  2.547460e+01    1.127791e+03
  2.552761e+01    1.117653e+03
  2.558061e+01    1.117407e+03
  2.563362e+01    1.119816e+03
  2.568662e+01    1.103675e+03
  2.573962e+01    1.095018e+03
  2.579263e+01    1.090492e+03
  2.584563e+01    1.085510e+03
  2.589864e+01    1.077791e+03
  2.595164e+01    1.075440e+03
  2.600465e+01    1.070269e+03
  2.605765e+01    1.073946e+03
  2.611065e+01    1.069850e+03
  2.616366e+01    1.067158e+03
  2.621666e+01    1.058861e+03
  2.626967e+01    1.049224e+03
  2.632267e+01    1.044337e+03
  2.637567e+01    1.039821e+03
  2.642868e+01    1.018712e+03
  2.648168e+01    9.920299e+02
