# == pyFAI calibration ==
# Distance Sample to Detector: 0.2945755399789714 m
# PONI: 2.880e-01, 2.450e-01 m
# Rotations: -0.007291 -0.010887 -0.000000 rad
# 
# == Fit2d calibration ==
# Distance Sample-beamCenter: 294.601 mm
# Center: x=1437.174, y=1655.617 pix
# Tilt: 0.751 deg  TiltPlanRot: -56.193 deg
# 
# Detector Pilatus CdTe 2M	 PixelSize= 1.720e-04, 1.720e-04 m
#    Detector has a mask: True 
#    Detector has a dark current: False 
#    detector has a flat field: False 
# 
# Wavelength: 2.0732883349524408e-11 m
# Mask applied: from detector
# Dark current applied: False
# Flat field applied: False
# Polarization factor: 0.9
# Normalization factor: 1.0
# --> /gpfs/current/raw/FMue_2/FMue_2_20231024_120911_00033.dat
#        q_A^-1             I 
  3.263564e-02             nan
  8.563974e-02             nan
  1.386438e-01             nan
  1.916479e-01             nan
  2.446520e-01    3.478755e+04
  2.976561e-01    2.744557e+04
  3.506602e-01    1.482023e+04
  4.036643e-01    1.044469e+04
  4.566684e-01    8.977764e+03
  5.096725e-01    8.634738e+03
  5.626766e-01    8.449126e+03
  6.156807e-01    8.221676e+03
  6.686848e-01    8.149657e+03
  7.216890e-01    8.227490e+03
  7.746931e-01    8.259479e+03
  8.276972e-01    8.359791e+03
  8.807013e-01    8.438636e+03
  9.337054e-01    8.580918e+03
  9.867095e-01    8.739678e+03
  1.039714e+00    8.989513e+03
  1.092718e+00    9.309841e+03
  1.145722e+00    9.796084e+03
  1.198726e+00    1.041118e+04
  1.251730e+00    1.125383e+04
  1.304734e+00    1.261036e+04
  1.357738e+00    1.366222e+04
  1.410742e+00    1.389707e+04
  1.463746e+00    1.392555e+04
  1.516750e+00    1.378263e+04
  1.569755e+00    1.327834e+04
  1.622759e+00    1.259924e+04
  1.675763e+00    1.173935e+04
  1.728767e+00    1.083219e+04
  1.781771e+00    1.001803e+04
  1.834775e+00    9.344693e+03
  1.887779e+00    8.762441e+03
  1.940783e+00    8.399099e+03
  1.993787e+00    8.102575e+03
  2.046791e+00    8.032212e+03
  2.099796e+00    8.525566e+03
  2.152800e+00    1.017421e+04
  2.205804e+00    1.092667e+04
  2.258808e+00    9.236009e+03
  2.311812e+00    8.005732e+03
  2.364816e+00    7.661292e+03
  2.417820e+00    7.942811e+03
  2.470824e+00    9.514508e+03
  2.523828e+00    1.484233e+04
  2.576832e+00    1.897621e+04
  2.629837e+00    1.385101e+04
  2.682841e+00    9.364550e+03
  2.735845e+00    7.612299e+03
  2.788849e+00    6.410432e+03
  2.841853e+00    5.556960e+03
  2.894857e+00    5.179616e+03
  2.947861e+00    5.091734e+03
  3.000865e+00    5.408806e+03
  3.053869e+00    6.863363e+03
  3.106874e+00    9.204317e+03
  3.159878e+00    9.515657e+03
  3.212882e+00    8.020898e+03
  3.265886e+00    5.900713e+03
  3.318890e+00    4.837148e+03
  3.371894e+00    4.578909e+03
  3.424898e+00    4.488816e+03
  3.477902e+00    4.467408e+03
  3.530906e+00    4.457335e+03
  3.583910e+00    4.466816e+03
  3.636915e+00    4.545129e+03
  3.689919e+00    4.761584e+03
  3.742923e+00    5.313038e+03
  3.795927e+00    5.905591e+03
  3.848931e+00    5.756829e+03
  3.901935e+00    5.734265e+03
  3.954939e+00    6.857160e+03
  4.007943e+00    8.961773e+03
  4.060947e+00    9.052530e+03
  4.113951e+00    7.352911e+03
  4.166956e+00    6.372374e+03
  4.219960e+00    6.042516e+03
  4.272964e+00    6.310590e+03
  4.325968e+00    8.245806e+03
  4.378972e+00    1.227849e+04
  4.431976e+00    1.323869e+04
  4.484980e+00    1.193070e+04
  4.537984e+00    9.148175e+03
  4.590988e+00    6.503657e+03
  4.643992e+00    5.388798e+03
  4.696997e+00    5.013731e+03
  4.750001e+00    4.878787e+03
  4.803005e+00    4.876771e+03
  4.856009e+00    5.046929e+03
  4.909013e+00    5.214480e+03
  4.962017e+00    5.241974e+03
  5.015021e+00    5.516338e+03
  5.068025e+00    6.150586e+03
  5.121029e+00    6.219637e+03
  5.174033e+00    5.535233e+03
  5.227038e+00    4.837516e+03
  5.280042e+00    4.474698e+03
  5.333046e+00    4.398154e+03
  5.386050e+00    4.408447e+03
  5.439054e+00    4.235821e+03
  5.492058e+00    4.174857e+03
  5.545062e+00    3.909870e+03
  5.598066e+00    3.599414e+03
  5.651070e+00    3.477803e+03
  5.704074e+00    3.527092e+03
  5.757079e+00    3.762582e+03
  5.810083e+00    4.003800e+03
  5.863087e+00    4.145749e+03
  5.916091e+00    4.666914e+03
  5.969095e+00    4.980354e+03
  6.022099e+00    4.437595e+03
  6.075103e+00    3.972316e+03
  6.128107e+00    3.888082e+03
  6.181111e+00    4.039286e+03
  6.234115e+00    4.058471e+03
  6.287120e+00    3.892962e+03
  6.340124e+00    3.753679e+03
  6.393128e+00    3.614701e+03
  6.446132e+00    3.460275e+03
  6.499136e+00    3.415696e+03
  6.552140e+00    3.499946e+03
  6.605144e+00    3.630783e+03
  6.658148e+00    3.864668e+03
  6.711152e+00    4.183850e+03
  6.764156e+00    4.066847e+03
  6.817161e+00    3.642503e+03
  6.870165e+00    3.398122e+03
  6.923169e+00    3.376422e+03
  6.976173e+00    3.364009e+03
  7.029177e+00    3.296899e+03
  7.082181e+00    3.277058e+03
  7.135185e+00    3.202557e+03
  7.188189e+00    3.110953e+03
  7.241193e+00    3.094927e+03
  7.294197e+00    3.188439e+03
  7.347202e+00    3.383351e+03
  7.400206e+00    3.533226e+03
  7.453210e+00    3.467878e+03
  7.506214e+00    3.483717e+03
  7.559218e+00    3.804740e+03
  7.612222e+00    4.028521e+03
  7.665226e+00    3.787453e+03
  7.718230e+00    3.699612e+03
  7.771234e+00    3.704879e+03
  7.824239e+00    3.537358e+03
  7.877243e+00    3.411122e+03
  7.930247e+00    3.401888e+03
  7.983251e+00    3.514234e+03
  8.036255e+00    3.565293e+03
  8.089259e+00    3.366927e+03
  8.142263e+00    3.150619e+03
  8.195267e+00    3.039815e+03
  8.248271e+00    2.990866e+03
  8.301275e+00    2.951791e+03
  8.354280e+00    2.915746e+03
  8.407284e+00    2.900542e+03
  8.460288e+00    2.908868e+03
  8.513292e+00    2.930216e+03
  8.566296e+00    2.960780e+03
  8.619300e+00    2.950432e+03
  8.672304e+00    2.913663e+03
  8.725308e+00    2.947121e+03
  8.778312e+00    2.980927e+03
  8.831316e+00    2.928849e+03
  8.884321e+00    2.878421e+03
  8.937325e+00    2.874846e+03
  8.990329e+00    2.883959e+03
  9.043333e+00    2.889132e+03
  9.096337e+00    2.923882e+03
  9.149341e+00    2.953436e+03
  9.202345e+00    2.876909e+03
  9.255349e+00    2.774808e+03
  9.308353e+00    2.715152e+03
  9.361357e+00    2.667320e+03
  9.414362e+00    2.630656e+03
  9.467366e+00    2.656701e+03
  9.520370e+00    2.703064e+03
  9.573374e+00    2.752629e+03
  9.626378e+00    2.798799e+03
  9.679382e+00    2.794772e+03
  9.732386e+00    2.758577e+03
  9.785390e+00    2.761130e+03
  9.838394e+00    2.741207e+03
  9.891398e+00    2.680589e+03
  9.944403e+00    2.645523e+03
  9.997407e+00    2.656339e+03
  1.005041e+01    2.688382e+03
  1.010341e+01    2.712305e+03
  1.015642e+01    2.698699e+03
  1.020942e+01    2.615069e+03
  1.026243e+01    2.531525e+03
  1.031543e+01    2.494363e+03
  1.036844e+01    2.490813e+03
  1.042144e+01    2.483396e+03
  1.047444e+01    2.497793e+03
  1.052745e+01    2.511192e+03
  1.058045e+01    2.527979e+03
  1.063346e+01    2.511094e+03
  1.068646e+01    2.483189e+03
  1.073946e+01    2.466922e+03
  1.079247e+01    2.453304e+03
  1.084547e+01    2.437094e+03
  1.089848e+01    2.450715e+03
  1.095148e+01    2.493401e+03
  1.100448e+01    2.537601e+03
  1.105749e+01    2.540199e+03
  1.111049e+01    2.496637e+03
  1.116350e+01    2.439172e+03
  1.121650e+01    2.409284e+03
  1.126951e+01    2.395554e+03
  1.132251e+01    2.400549e+03
  1.137551e+01    2.421577e+03
  1.142852e+01    2.454892e+03
  1.148152e+01    2.479058e+03
  1.153453e+01    2.498214e+03
  1.158753e+01    2.515371e+03
  1.164053e+01    2.489644e+03
  1.169354e+01    2.438128e+03
  1.174654e+01    2.431480e+03
  1.179955e+01    2.425857e+03
  1.185255e+01    2.435137e+03
  1.190555e+01    2.419434e+03
  1.195856e+01    2.379392e+03
  1.201156e+01    2.340865e+03
  1.206457e+01    2.317249e+03
  1.211757e+01    2.323113e+03
  1.217057e+01    2.341752e+03
  1.222358e+01    2.367594e+03
  1.227658e+01    2.384041e+03
  1.232959e+01    2.365173e+03
  1.238259e+01    2.328313e+03
  1.243560e+01    2.314217e+03
  1.248860e+01    2.303178e+03
  1.254160e+01    2.307637e+03
  1.259461e+01    2.313084e+03
  1.264761e+01    2.311490e+03
  1.270062e+01    2.297088e+03
  1.275362e+01    2.279891e+03
  1.280662e+01    2.267475e+03
  1.285963e+01    2.257142e+03
  1.291263e+01    2.250121e+03
  1.296564e+01    2.250046e+03
  1.301864e+01    2.258036e+03
  1.307164e+01    2.260471e+03
  1.312465e+01    2.262706e+03
  1.317765e+01    2.262166e+03
  1.323066e+01    2.244898e+03
  1.328366e+01    2.249161e+03
  1.333667e+01    2.264303e+03
  1.338967e+01    2.279118e+03
  1.344267e+01    2.280227e+03
  1.349568e+01    2.246056e+03
  1.354868e+01    2.219735e+03
  1.360169e+01    2.203257e+03
  1.365469e+01    2.198755e+03
  1.370769e+01    2.205354e+03
  1.376070e+01    2.202482e+03
  1.381370e+01    2.189967e+03
  1.386671e+01    2.173644e+03
  1.391971e+01    2.158060e+03
  1.397271e+01    2.152570e+03
  1.402572e+01    2.153043e+03
  1.407872e+01    2.153669e+03
  1.413173e+01    2.146693e+03
  1.418473e+01    2.134766e+03
  1.423773e+01    2.120667e+03
  1.429074e+01    2.109723e+03
  1.434374e+01    2.112848e+03
  1.439675e+01    2.108423e+03
  1.444975e+01    2.107314e+03
  1.450276e+01    2.100033e+03
  1.455576e+01    2.089559e+03
  1.460876e+01    2.083018e+03
  1.466177e+01    2.079650e+03
  1.471477e+01    2.081988e+03
  1.476778e+01    2.083899e+03
  1.482078e+01    2.074679e+03
  1.487378e+01    2.062651e+03
  1.492679e+01    2.054640e+03
  1.497979e+01    2.049934e+03
  1.503280e+01    2.050587e+03
  1.508580e+01    2.051475e+03
  1.513880e+01    2.053913e+03
  1.519181e+01    2.059106e+03
  1.524481e+01    2.084735e+03
  1.529782e+01    2.074504e+03
  1.535082e+01    2.073816e+03
  1.540382e+01    2.071906e+03
  1.545683e+01    2.059998e+03
  1.550983e+01    2.056600e+03
  1.556284e+01    2.048096e+03
  1.561584e+01    2.043888e+03
  1.566885e+01    2.044348e+03
  1.572185e+01    2.046927e+03
  1.577485e+01    2.048439e+03
  1.582786e+01    2.042008e+03
  1.588086e+01    2.033489e+03
  1.593387e+01    2.027631e+03
  1.598687e+01    2.021616e+03
  1.603987e+01    2.011735e+03
  1.609288e+01    2.001715e+03
  1.614588e+01    1.991683e+03
  1.619889e+01    1.992448e+03
  1.625189e+01    1.996974e+03
  1.630489e+01    1.994593e+03
  1.635790e+01    1.990615e+03
  1.641090e+01    1.986676e+03
  1.646391e+01    1.984063e+03
  1.651691e+01    1.988396e+03
  1.656992e+01    1.988499e+03
  1.662292e+01    1.985638e+03
  1.667592e+01    1.982310e+03
  1.672893e+01    1.975334e+03
  1.678193e+01    1.973577e+03
  1.683494e+01    1.969028e+03
  1.688794e+01    1.971822e+03
  1.694094e+01    1.969895e+03
  1.699395e+01    1.969358e+03
  1.704695e+01    1.965866e+03
  1.709996e+01    1.964708e+03
  1.715296e+01    1.962557e+03
  1.720596e+01    1.955692e+03
  1.725897e+01    1.949937e+03
  1.731197e+01    1.942312e+03
  1.736498e+01    1.936995e+03
  1.741798e+01    1.935465e+03
  1.747098e+01    1.932421e+03
  1.752399e+01    1.930806e+03
  1.757699e+01    1.928515e+03
  1.763000e+01    1.926568e+03
  1.768300e+01    1.925953e+03
  1.773601e+01    1.923664e+03
  1.778901e+01    1.917523e+03
  1.784201e+01    1.911615e+03
  1.789502e+01    1.910896e+03
  1.794802e+01    1.905005e+03
  1.800103e+01    1.905057e+03
  1.805403e+01    1.901705e+03
  1.810703e+01    1.892949e+03
  1.816004e+01    1.887873e+03
  1.821304e+01    1.883680e+03
  1.826605e+01    1.886113e+03
  1.831905e+01    1.875500e+03
  1.837205e+01    1.870472e+03
  1.842506e+01    1.869461e+03
  1.847806e+01    1.867457e+03
  1.853107e+01    1.864682e+03
  1.858407e+01    1.862978e+03
  1.863708e+01    1.866383e+03
  1.869008e+01    1.880268e+03
  1.874308e+01    1.871598e+03
  1.879609e+01    1.865793e+03
  1.884909e+01    1.861189e+03
  1.890210e+01    1.859823e+03
  1.895510e+01    1.853188e+03
  1.900810e+01    1.853198e+03
  1.906111e+01    1.847168e+03
  1.911411e+01    1.842193e+03
  1.916712e+01    1.841079e+03
  1.922012e+01    1.836916e+03
  1.927312e+01    1.829992e+03
  1.932613e+01    1.828058e+03
  1.937913e+01    1.822887e+03
  1.943214e+01    1.818720e+03
  1.948514e+01    1.815248e+03
  1.953814e+01    1.811620e+03
  1.959115e+01    1.805597e+03
  1.964415e+01    1.801173e+03
  1.969716e+01    1.799471e+03
  1.975016e+01    1.796010e+03
  1.980317e+01    1.791349e+03
  1.985617e+01    1.786048e+03
  1.990917e+01    1.781216e+03
  1.996218e+01    1.778715e+03
  2.001518e+01    1.775508e+03
  2.006819e+01    1.768067e+03
  2.012119e+01    1.765390e+03
  2.017419e+01    1.761364e+03
  2.022720e+01    1.754541e+03
  2.028020e+01    1.748430e+03
  2.033321e+01    1.741306e+03
  2.038621e+01    1.735586e+03
  2.043921e+01    1.731376e+03
  2.049222e+01    1.727267e+03
  2.054522e+01    1.721635e+03
  2.059823e+01    1.717916e+03
  2.065123e+01    1.712254e+03
  2.070424e+01    1.707169e+03
  2.075724e+01    1.705221e+03
  2.081024e+01    1.712347e+03
  2.086325e+01    1.704802e+03
  2.091625e+01    1.688627e+03
  2.096926e+01    1.676420e+03
  2.102226e+01    1.666207e+03
  2.107526e+01    1.658236e+03
  2.112827e+01    1.645913e+03
  2.118127e+01    1.636986e+03
  2.123428e+01    1.626282e+03
  2.128728e+01    1.617026e+03
  2.134028e+01    1.608838e+03
  2.139329e+01    1.595849e+03
  2.144629e+01    1.588433e+03
  2.149930e+01    1.580211e+03
  2.155230e+01    1.572735e+03
  2.160530e+01    1.566205e+03
  2.165831e+01    1.554816e+03
  2.171131e+01    1.549607e+03
  2.176432e+01    1.543957e+03
  2.181732e+01    1.535618e+03
  2.187033e+01    1.525266e+03
  2.192333e+01    1.519041e+03
  2.197633e+01    1.509460e+03
  2.202934e+01    1.501952e+03
  2.208234e+01    1.490982e+03
  2.213535e+01    1.482598e+03
  2.218835e+01    1.472834e+03
  2.224135e+01    1.465610e+03
  2.229436e+01    1.458649e+03
  2.234736e+01    1.449307e+03
  2.240037e+01    1.439007e+03
  2.245337e+01    1.431022e+03
  2.250637e+01    1.426088e+03
  2.255938e+01    1.417103e+03
  2.261238e+01    1.417530e+03
  2.266539e+01    1.417063e+03
  2.271839e+01    1.420248e+03
  2.277140e+01    1.418692e+03
  2.282440e+01    1.418607e+03
  2.287740e+01    1.414474e+03
  2.293041e+01    1.414434e+03
  2.298341e+01    1.411715e+03
  2.303642e+01    1.412839e+03
  2.308942e+01    1.410770e+03
  2.314242e+01    1.406726e+03
  2.319543e+01    1.403367e+03
  2.324843e+01    1.398753e+03
  2.330144e+01    1.395136e+03
  2.335444e+01    1.393682e+03
  2.340744e+01    1.394118e+03
  2.346045e+01    1.393446e+03
  2.351345e+01    1.388739e+03
  2.356646e+01    1.385039e+03
  2.361946e+01    1.384462e+03
  2.367246e+01    1.384442e+03
  2.372547e+01    1.379576e+03
  2.377847e+01    1.375256e+03
  2.383148e+01    1.370269e+03
  2.388448e+01    1.368276e+03
  2.393749e+01    1.365784e+03
  2.399049e+01    1.364422e+03
  2.404349e+01    1.362644e+03
  2.409650e+01    1.360668e+03
  2.414950e+01    1.356590e+03
  2.420251e+01    1.349920e+03
  2.425551e+01    1.347548e+03
  2.430851e+01    1.341466e+03
  2.436152e+01    1.338931e+03
  2.441452e+01    1.330062e+03
  2.446753e+01    1.327795e+03
  2.452053e+01    1.320912e+03
  2.457353e+01    1.316179e+03
  2.462654e+01    1.313641e+03
  2.467954e+01    1.304525e+03
  2.473255e+01    1.297044e+03
  2.478555e+01    1.287008e+03
  2.483855e+01    1.276052e+03
  2.489156e+01    1.266961e+03
  2.494456e+01    1.258553e+03
  2.499757e+01    1.250323e+03
  2.505057e+01    1.239079e+03
  2.510358e+01    1.231828e+03
  2.515658e+01    1.224733e+03
  2.520958e+01    1.220915e+03
  2.526259e+01    1.209703e+03
  2.531559e+01    1.203286e+03
  2.536860e+01    1.198659e+03
  2.542160e+01    1.188345e+03
  2.547460e+01    1.182323e+03
  2.552761e+01    1.168647e+03
  2.558061e+01    1.169809e+03
  2.563362e+01    1.164478e+03
  2.568662e+01    1.154324e+03
  2.573962e+01    1.142837e+03
  2.579263e+01    1.133033e+03
  2.584563e+01    1.128568e+03
  2.589864e+01    1.128270e+03
  2.595164e+01    1.121386e+03
  2.600465e+01    1.122895e+03
  2.605765e+01    1.115252e+03
  2.611065e+01    1.113046e+03
  2.616366e+01    1.109120e+03
  2.621666e+01    1.102706e+03
  2.626967e+01    1.092737e+03
  2.632267e+01    1.094736e+03
  2.637567e+01    1.087016e+03
  2.642868e+01    1.061125e+03
  2.648168e+01    1.057593e+03
