# == pyFAI calibration ==
# Distance Sample to Detector: 0.2945755399789714 m
# PONI: 2.880e-01, 2.450e-01 m
# Rotations: -0.007291 -0.010887 -0.000000 rad
# 
# == Fit2d calibration ==
# Distance Sample-beamCenter: 294.601 mm
# Center: x=1437.174, y=1655.617 pix
# Tilt: 0.751 deg  TiltPlanRot: -56.193 deg
# 
# Detector Pilatus CdTe 2M	 PixelSize= 1.720e-04, 1.720e-04 m
#    Detector has a mask: True 
#    Detector has a dark current: False 
#    detector has a flat field: False 
# 
# Wavelength: 2.0732883349524408e-11 m
# Mask applied: from detector
# Dark current applied: False
# Flat field applied: False
# Polarization factor: 0.9
# Normalization factor: 1.0
# --> /gpfs/current/raw/FMue_2/FMue_2_20231024_120911_00129.dat
#        q_A^-1             I 
  3.263564e-02             nan
  8.563974e-02             nan
  1.386438e-01             nan
  1.916479e-01             nan
  2.446520e-01    3.885835e+04
  2.976561e-01    3.000769e+04
  3.506602e-01    1.590527e+04
  4.036643e-01    1.114146e+04
  4.566684e-01    9.517729e+03
  5.096725e-01    9.114607e+03
  5.626766e-01    8.821536e+03
  6.156807e-01    8.473450e+03
  6.686848e-01    8.307008e+03
  7.216890e-01    8.332479e+03
  7.746931e-01    8.318573e+03
  8.276972e-01    8.393359e+03
  8.807013e-01    8.459030e+03
  9.337054e-01    8.596862e+03
  9.867095e-01    8.750648e+03
  1.039714e+00    8.994128e+03
  1.092718e+00    9.314362e+03
  1.145722e+00    9.799188e+03
  1.198726e+00    1.037753e+04
  1.251730e+00    1.106937e+04
  1.304734e+00    1.196770e+04
  1.357738e+00    1.281347e+04
  1.410742e+00    1.352474e+04
  1.463746e+00    1.385855e+04
  1.516750e+00    1.382130e+04
  1.569755e+00    1.333781e+04
  1.622759e+00    1.268779e+04
  1.675763e+00    1.183570e+04
  1.728767e+00    1.096012e+04
  1.781771e+00    1.015931e+04
  1.834775e+00    9.514392e+03
  1.887779e+00    8.953008e+03
  1.940783e+00    8.594065e+03
  1.993787e+00    8.294408e+03
  2.046791e+00    8.129735e+03
  2.099796e+00    8.082325e+03
  2.152800e+00    8.099507e+03
  2.205804e+00    8.175359e+03
  2.258808e+00    8.246795e+03
  2.311812e+00    8.275539e+03
  2.364816e+00    8.348466e+03
  2.417820e+00    8.659858e+03
  2.470824e+00    9.394870e+03
  2.523828e+00    1.096035e+04
  2.576832e+00    1.291010e+04
  2.629837e+00    1.102711e+04
  2.682841e+00    8.472306e+03
  2.735845e+00    7.744062e+03
  2.788849e+00    7.108489e+03
  2.841853e+00    6.790057e+03
  2.894857e+00    7.741999e+03
  2.947861e+00    1.118751e+04
  3.000865e+00    1.295274e+04
  3.053869e+00    9.557755e+03
  3.106874e+00    8.020591e+03
  3.159878e+00    8.592354e+03
  3.212882e+00    7.879109e+03
  3.265886e+00    6.018100e+03
  3.318890e+00    5.089175e+03
  3.371894e+00    4.844117e+03
  3.424898e+00    4.750813e+03
  3.477902e+00    4.712261e+03
  3.530906e+00    4.680715e+03
  3.583910e+00    4.659029e+03
  3.636915e+00    4.683384e+03
  3.689919e+00    4.732371e+03
  3.742923e+00    4.812031e+03
  3.795927e+00    4.931406e+03
  3.848931e+00    5.072283e+03
  3.901935e+00    5.261283e+03
  3.954939e+00    5.480655e+03
  4.007943e+00    5.822506e+03
  4.060947e+00    6.328870e+03
  4.113951e+00    7.127635e+03
  4.166956e+00    8.862515e+03
  4.219960e+00    1.102795e+04
  4.272964e+00    9.559644e+03
  4.325968e+00    7.289064e+03
  4.378972e+00    7.312085e+03
  4.431976e+00    9.328116e+03
  4.484980e+00    1.068511e+04
  4.537984e+00    8.654404e+03
  4.590988e+00    6.474794e+03
  4.643992e+00    5.662169e+03
  4.696997e+00    5.448432e+03
  4.750001e+00    5.404537e+03
  4.803005e+00    5.474685e+03
  4.856009e+00    5.750935e+03
  4.909013e+00    6.346997e+03
  4.962017e+00    6.648105e+03
  5.015021e+00    6.085085e+03
  5.068025e+00    5.688509e+03
  5.121029e+00    5.836368e+03
  5.174033e+00    5.975101e+03
  5.227038e+00    5.380481e+03
  5.280042e+00    4.716580e+03
  5.333046e+00    4.378694e+03
  5.386050e+00    4.208746e+03
  5.439054e+00    4.194422e+03
  5.492058e+00    4.179787e+03
  5.545062e+00    3.891457e+03
  5.598066e+00    3.643075e+03
  5.651070e+00    3.544227e+03
  5.704074e+00    3.512143e+03
  5.757079e+00    3.519293e+03
  5.810083e+00    3.554751e+03
  5.863087e+00    3.652330e+03
  5.916091e+00    3.857278e+03
  5.969095e+00    4.070475e+03
  6.022099e+00    4.047224e+03
  6.075103e+00    3.914106e+03
  6.128107e+00    3.825914e+03
  6.181111e+00    3.791381e+03
  6.234115e+00    3.859475e+03
  6.287120e+00    3.986880e+03
  6.340124e+00    4.038661e+03
  6.393128e+00    4.043858e+03
  6.446132e+00    4.056427e+03
  6.499136e+00    4.107353e+03
  6.552140e+00    4.047325e+03
  6.605144e+00    4.052197e+03
  6.658148e+00    4.176451e+03
  6.711152e+00    4.031472e+03
  6.764156e+00    3.707143e+03
  6.817161e+00    3.493800e+03
  6.870165e+00    3.361573e+03
  6.923169e+00    3.286989e+03
  6.976173e+00    3.305849e+03
  7.029177e+00    3.366712e+03
  7.082181e+00    3.415818e+03
  7.135185e+00    3.403090e+03
  7.188189e+00    3.396114e+03
  7.241193e+00    3.489906e+03
  7.294197e+00    3.652390e+03
  7.347202e+00    3.606859e+03
  7.400206e+00    3.411067e+03
  7.453210e+00    3.293526e+03
  7.506214e+00    3.263984e+03
  7.559218e+00    3.265350e+03
  7.612222e+00    3.305466e+03
  7.665226e+00    3.452751e+03
  7.718230e+00    3.708858e+03
  7.771234e+00    3.745303e+03
  7.824239e+00    3.473066e+03
  7.877243e+00    3.230416e+03
  7.930247e+00    3.101924e+03
  7.983251e+00    3.051836e+03
  8.036255e+00    3.044431e+03
  8.089259e+00    3.045919e+03
  8.142263e+00    3.059586e+03
  8.195267e+00    3.067351e+03
  8.248271e+00    3.069620e+03
  8.301275e+00    3.063890e+03
  8.354280e+00    3.067800e+03
  8.407284e+00    3.086869e+03
  8.460288e+00    3.084655e+03
  8.513292e+00    3.041535e+03
  8.566296e+00    3.018250e+03
  8.619300e+00    3.008034e+03
  8.672304e+00    3.015600e+03
  8.725308e+00    3.044913e+03
  8.778312e+00    3.076937e+03
  8.831316e+00    3.100759e+03
  8.884321e+00    3.107807e+03
  8.937325e+00    3.095594e+03
  8.990329e+00    3.022448e+03
  9.043333e+00    2.900938e+03
  9.096337e+00    2.812666e+03
  9.149341e+00    2.768536e+03
  9.202345e+00    2.748721e+03
  9.255349e+00    2.742618e+03
  9.308353e+00    2.740786e+03
  9.361357e+00    2.756704e+03
  9.414362e+00    2.761981e+03
  9.467366e+00    2.761985e+03
  9.520370e+00    2.729040e+03
  9.573374e+00    2.686438e+03
  9.626378e+00    2.666723e+03
  9.679382e+00    2.662251e+03
  9.732386e+00    2.669686e+03
  9.785390e+00    2.672703e+03
  9.838394e+00    2.671408e+03
  9.891398e+00    2.665088e+03
  9.944403e+00    2.646757e+03
  9.997407e+00    2.621038e+03
  1.005041e+01    2.590821e+03
  1.010341e+01    2.546894e+03
  1.015642e+01    2.520902e+03
  1.020942e+01    2.509427e+03
  1.026243e+01    2.501385e+03
  1.031543e+01    2.511854e+03
  1.036844e+01    2.531229e+03
  1.042144e+01    2.528681e+03
  1.047444e+01    2.532687e+03
  1.052745e+01    2.530021e+03
  1.058045e+01    2.534516e+03
  1.063346e+01    2.535017e+03
  1.068646e+01    2.530168e+03
  1.073946e+01    2.515572e+03
  1.079247e+01    2.496561e+03
  1.084547e+01    2.480296e+03
  1.089848e+01    2.476283e+03
  1.095148e+01    2.475092e+03
  1.100448e+01    2.471116e+03
  1.105749e+01    2.471154e+03
  1.111049e+01    2.479030e+03
  1.116350e+01    2.472115e+03
  1.121650e+01    2.457517e+03
  1.126951e+01    2.437480e+03
  1.132251e+01    2.422965e+03
  1.137551e+01    2.412965e+03
  1.142852e+01    2.407062e+03
  1.148152e+01    2.392215e+03
  1.153453e+01    2.378704e+03
  1.158753e+01    2.369171e+03
  1.164053e+01    2.362141e+03
  1.169354e+01    2.365886e+03
  1.174654e+01    2.397230e+03
  1.179955e+01    2.392880e+03
  1.185255e+01    2.392509e+03
  1.190555e+01    2.378251e+03
  1.195856e+01    2.366539e+03
  1.201156e+01    2.354912e+03
  1.206457e+01    2.347750e+03
  1.211757e+01    2.354583e+03
  1.217057e+01    2.357103e+03
  1.222358e+01    2.357323e+03
  1.227658e+01    2.354505e+03
  1.232959e+01    2.352822e+03
  1.238259e+01    2.343442e+03
  1.243560e+01    2.342946e+03
  1.248860e+01    2.335928e+03
  1.254160e+01    2.339215e+03
  1.259461e+01    2.336981e+03
  1.264761e+01    2.331241e+03
  1.270062e+01    2.318444e+03
  1.275362e+01    2.309696e+03
  1.280662e+01    2.303130e+03
  1.285963e+01    2.295081e+03
  1.291263e+01    2.286213e+03
  1.296564e+01    2.275407e+03
  1.301864e+01    2.265500e+03
  1.307164e+01    2.253175e+03
  1.312465e+01    2.240648e+03
  1.317765e+01    2.234478e+03
  1.323066e+01    2.216920e+03
  1.328366e+01    2.210041e+03
  1.333667e+01    2.205912e+03
  1.338967e+01    2.203000e+03
  1.344267e+01    2.213659e+03
  1.349568e+01    2.209807e+03
  1.354868e+01    2.203312e+03
  1.360169e+01    2.196717e+03
  1.365469e+01    2.182026e+03
  1.370769e+01    2.172483e+03
  1.376070e+01    2.160017e+03
  1.381370e+01    2.152860e+03
  1.386671e+01    2.142098e+03
  1.391971e+01    2.135020e+03
  1.397271e+01    2.131334e+03
  1.402572e+01    2.126988e+03
  1.407872e+01    2.119375e+03
  1.413173e+01    2.113830e+03
  1.418473e+01    2.109475e+03
  1.423773e+01    2.105679e+03
  1.429074e+01    2.096225e+03
  1.434374e+01    2.095995e+03
  1.439675e+01    2.087289e+03
  1.444975e+01    2.086418e+03
  1.450276e+01    2.081236e+03
  1.455576e+01    2.078712e+03
  1.460876e+01    2.077026e+03
  1.466177e+01    2.074124e+03
  1.471477e+01    2.073758e+03
  1.476778e+01    2.076632e+03
  1.482078e+01    2.075066e+03
  1.487378e+01    2.070703e+03
  1.492679e+01    2.066113e+03
  1.497979e+01    2.061787e+03
  1.503280e+01    2.059092e+03
  1.508580e+01    2.056635e+03
  1.513880e+01    2.054510e+03
  1.519181e+01    2.060189e+03
  1.524481e+01    2.080434e+03
  1.529782e+01    2.064426e+03
  1.535082e+01    2.053212e+03
  1.540382e+01    2.048486e+03
  1.545683e+01    2.038104e+03
  1.550983e+01    2.043039e+03
  1.556284e+01    2.038764e+03
  1.561584e+01    2.032461e+03
  1.566885e+01    2.027111e+03
  1.572185e+01    2.024671e+03
  1.577485e+01    2.022276e+03
  1.582786e+01    2.017955e+03
  1.588086e+01    2.014716e+03
  1.593387e+01    2.012450e+03
  1.598687e+01    2.009110e+03
  1.603987e+01    2.000463e+03
  1.609288e+01    1.993492e+03
  1.614588e+01    1.987391e+03
  1.619889e+01    1.989797e+03
  1.625189e+01    1.992919e+03
  1.630489e+01    1.990774e+03
  1.635790e+01    1.984609e+03
  1.641090e+01    1.982767e+03
  1.646391e+01    1.976038e+03
  1.651691e+01    1.974438e+03
  1.656992e+01    1.967220e+03
  1.662292e+01    1.963228e+03
  1.667592e+01    1.963566e+03
  1.672893e+01    1.960647e+03
  1.678193e+01    1.960999e+03
  1.683494e+01    1.957357e+03
  1.688794e+01    1.956268e+03
  1.694094e+01    1.955881e+03
  1.699395e+01    1.950546e+03
  1.704695e+01    1.946283e+03
  1.709996e+01    1.943605e+03
  1.715296e+01    1.939041e+03
  1.720596e+01    1.937020e+03
  1.725897e+01    1.931679e+03
  1.731197e+01    1.929923e+03
  1.736498e+01    1.923051e+03
  1.741798e+01    1.922723e+03
  1.747098e+01    1.920838e+03
  1.752399e+01    1.917529e+03
  1.757699e+01    1.914235e+03
  1.763000e+01    1.907102e+03
  1.768300e+01    1.902984e+03
  1.773601e+01    1.900544e+03
  1.778901e+01    1.896338e+03
  1.784201e+01    1.888670e+03
  1.789502e+01    1.888043e+03
  1.794802e+01    1.882555e+03
  1.800103e+01    1.881111e+03
  1.805403e+01    1.877349e+03
  1.810703e+01    1.871276e+03
  1.816004e+01    1.868529e+03
  1.821304e+01    1.866586e+03
  1.826605e+01    1.869403e+03
  1.831905e+01    1.859236e+03
  1.837205e+01    1.856954e+03
  1.842506e+01    1.854228e+03
  1.847806e+01    1.853198e+03
  1.853107e+01    1.850434e+03
  1.858407e+01    1.848204e+03
  1.863708e+01    1.850085e+03
  1.869008e+01    1.862840e+03
  1.874308e+01    1.853238e+03
  1.879609e+01    1.848205e+03
  1.884909e+01    1.843775e+03
  1.890210e+01    1.840929e+03
  1.895510e+01    1.836086e+03
  1.900810e+01    1.832774e+03
  1.906111e+01    1.826028e+03
  1.911411e+01    1.819017e+03
  1.916712e+01    1.816671e+03
  1.922012e+01    1.812923e+03
  1.927312e+01    1.806101e+03
  1.932613e+01    1.802815e+03
  1.937913e+01    1.797670e+03
  1.943214e+01    1.792932e+03
  1.948514e+01    1.790166e+03
  1.953814e+01    1.783555e+03
  1.959115e+01    1.779159e+03
  1.964415e+01    1.773758e+03
  1.969716e+01    1.771902e+03
  1.975016e+01    1.766927e+03
  1.980317e+01    1.761021e+03
  1.985617e+01    1.757696e+03
  1.990917e+01    1.751558e+03
  1.996218e+01    1.746175e+03
  2.001518e+01    1.743656e+03
  2.006819e+01    1.735429e+03
  2.012119e+01    1.728757e+03
  2.017419e+01    1.724840e+03
  2.022720e+01    1.719685e+03
  2.028020e+01    1.712538e+03
  2.033321e+01    1.705162e+03
  2.038621e+01    1.700117e+03
  2.043921e+01    1.695556e+03
  2.049222e+01    1.691984e+03
  2.054522e+01    1.686739e+03
  2.059823e+01    1.681856e+03
  2.065123e+01    1.676372e+03
  2.070424e+01    1.674190e+03
  2.075724e+01    1.671331e+03
  2.081024e+01    1.679525e+03
  2.086325e+01    1.671136e+03
  2.091625e+01    1.652906e+03
  2.096926e+01    1.640406e+03
  2.102226e+01    1.628763e+03
  2.107526e+01    1.620488e+03
  2.112827e+01    1.609430e+03
  2.118127e+01    1.600829e+03
  2.123428e+01    1.591121e+03
  2.128728e+01    1.582358e+03
  2.134028e+01    1.573328e+03
  2.139329e+01    1.563566e+03
  2.144629e+01    1.554930e+03
  2.149930e+01    1.547176e+03
  2.155230e+01    1.537873e+03
  2.160530e+01    1.529851e+03
  2.165831e+01    1.520046e+03
  2.171131e+01    1.513392e+03
  2.176432e+01    1.508908e+03
  2.181732e+01    1.498942e+03
  2.187033e+01    1.488521e+03
  2.192333e+01    1.483283e+03
  2.197633e+01    1.475330e+03
  2.202934e+01    1.464151e+03
  2.208234e+01    1.453787e+03
  2.213535e+01    1.447011e+03
  2.218835e+01    1.438802e+03
  2.224135e+01    1.430137e+03
  2.229436e+01    1.422676e+03
  2.234736e+01    1.414828e+03
  2.240037e+01    1.403724e+03
  2.245337e+01    1.397046e+03
  2.250637e+01    1.389861e+03
  2.255938e+01    1.381327e+03
  2.261238e+01    1.383599e+03
  2.266539e+01    1.383801e+03
  2.271839e+01    1.386512e+03
  2.277140e+01    1.383812e+03
  2.282440e+01    1.384024e+03
  2.287740e+01    1.381245e+03
  2.293041e+01    1.380582e+03
  2.298341e+01    1.378904e+03
  2.303642e+01    1.378538e+03
  2.308942e+01    1.374886e+03
  2.314242e+01    1.373461e+03
  2.319543e+01    1.371104e+03
  2.324843e+01    1.365978e+03
  2.330144e+01    1.362801e+03
  2.335444e+01    1.361492e+03
  2.340744e+01    1.361506e+03
  2.346045e+01    1.359801e+03
  2.351345e+01    1.356992e+03
  2.356646e+01    1.354761e+03
  2.361946e+01    1.352080e+03
  2.367246e+01    1.351633e+03
  2.372547e+01    1.347966e+03
  2.377847e+01    1.342605e+03
  2.383148e+01    1.338874e+03
  2.388448e+01    1.333969e+03
  2.393749e+01    1.331772e+03
  2.399049e+01    1.329095e+03
  2.404349e+01    1.326028e+03
  2.409650e+01    1.322445e+03
  2.414950e+01    1.318814e+03
  2.420251e+01    1.311206e+03
  2.425551e+01    1.304889e+03
  2.430851e+01    1.300695e+03
  2.436152e+01    1.295175e+03
  2.441452e+01    1.290704e+03
  2.446753e+01    1.286123e+03
  2.452053e+01    1.275653e+03
  2.457353e+01    1.273316e+03
  2.462654e+01    1.268520e+03
  2.467954e+01    1.259460e+03
  2.473255e+01    1.251298e+03
  2.478555e+01    1.242875e+03
  2.483855e+01    1.234933e+03
  2.489156e+01    1.221213e+03
  2.494456e+01    1.215805e+03
  2.499757e+01    1.207540e+03
  2.505057e+01    1.198958e+03
  2.510358e+01    1.187606e+03
  2.515658e+01    1.185290e+03
  2.520958e+01    1.182051e+03
  2.526259e+01    1.171849e+03
  2.531559e+01    1.165467e+03
  2.536860e+01    1.157716e+03
  2.542160e+01    1.155079e+03
  2.547460e+01    1.144668e+03
  2.552761e+01    1.137237e+03
  2.558061e+01    1.134822e+03
  2.563362e+01    1.130802e+03
  2.568662e+01    1.117889e+03
  2.573962e+01    1.114411e+03
  2.579263e+01    1.105359e+03
  2.584563e+01    1.097772e+03
  2.589864e+01    1.095884e+03
  2.595164e+01    1.091060e+03
  2.600465e+01    1.089820e+03
  2.605765e+01    1.084433e+03
  2.611065e+01    1.082042e+03
  2.616366e+01    1.079960e+03
  2.621666e+01    1.078199e+03
  2.626967e+01    1.062288e+03
  2.632267e+01    1.068835e+03
  2.637567e+01    1.053475e+03
  2.642868e+01    1.034976e+03
  2.648168e+01    1.038919e+03
