# == pyFAI calibration ==
# Distance Sample to Detector: 0.2945755399789714 m
# PONI: 2.880e-01, 2.450e-01 m
# Rotations: -0.007291 -0.010887 -0.000000 rad
# 
# == Fit2d calibration ==
# Distance Sample-beamCenter: 294.601 mm
# Center: x=1437.174, y=1655.617 pix
# Tilt: 0.751 deg  TiltPlanRot: -56.193 deg
# 
# Detector Pilatus CdTe 2M	 PixelSize= 1.720e-04, 1.720e-04 m
#    Detector has a mask: True 
#    Detector has a dark current: False 
#    detector has a flat field: False 
# 
# Wavelength: 2.0732883349524408e-11 m
# Mask applied: from detector
# Dark current applied: False
# Flat field applied: False
# Polarization factor: 0.9
# Normalization factor: 1.0
# --> /gpfs/current/raw/FMue_2/FMue_2_20231024_120911_00074.dat
#        q_A^-1             I 
  3.263564e-02             nan
  8.563974e-02             nan
  1.386438e-01             nan
  1.916479e-01             nan
  2.446520e-01    3.510398e+04
  2.976561e-01    2.748221e+04
  3.506602e-01    1.484764e+04
  4.036643e-01    1.046614e+04
  4.566684e-01    8.987009e+03
  5.096725e-01    8.646206e+03
  5.626766e-01    8.437461e+03
  6.156807e-01    8.215757e+03
  6.686848e-01    8.122896e+03
  7.216890e-01    8.222652e+03
  7.746931e-01    8.248418e+03
  8.276972e-01    8.346182e+03
  8.807013e-01    8.410524e+03
  9.337054e-01    8.566073e+03
  9.867095e-01    8.732119e+03
  1.039714e+00    8.979775e+03
  1.092718e+00    9.308611e+03
  1.145722e+00    9.798951e+03
  1.198726e+00    1.041964e+04
  1.251730e+00    1.127563e+04
  1.304734e+00    1.259245e+04
  1.357738e+00    1.356316e+04
  1.410742e+00    1.383515e+04
  1.463746e+00    1.391477e+04
  1.516750e+00    1.378985e+04
  1.569755e+00    1.328475e+04
  1.622759e+00    1.260869e+04
  1.675763e+00    1.174816e+04
  1.728767e+00    1.084480e+04
  1.781771e+00    1.003518e+04
  1.834775e+00    9.357434e+03
  1.887779e+00    8.778709e+03
  1.940783e+00    8.408749e+03
  1.993787e+00    8.121732e+03
  2.046791e+00    8.070377e+03
  2.099796e+00    8.606582e+03
  2.152800e+00    1.027334e+04
  2.205804e+00    1.076460e+04
  2.258808e+00    9.050681e+03
  2.311812e+00    7.984998e+03
  2.364816e+00    7.718855e+03
  2.417820e+00    8.074065e+03
  2.470824e+00    9.873547e+03
  2.523828e+00    1.550356e+04
  2.576832e+00    1.841754e+04
  2.629837e+00    1.294490e+04
  2.682841e+00    9.153534e+03
  2.735845e+00    7.522854e+03
  2.788849e+00    6.403809e+03
  2.841853e+00    5.635528e+03
  2.894857e+00    5.312589e+03
  2.947861e+00    5.285865e+03
  3.000865e+00    5.747984e+03
  3.053869e+00    7.463799e+03
  3.106874e+00    9.374804e+03
  3.159878e+00    9.184281e+03
  3.212882e+00    7.784482e+03
  3.265886e+00    5.807918e+03
  3.318890e+00    4.878508e+03
  3.371894e+00    4.639736e+03
  3.424898e+00    4.561019e+03
  3.477902e+00    4.540737e+03
  3.530906e+00    4.527360e+03
  3.583910e+00    4.542400e+03
  3.636915e+00    4.627361e+03
  3.689919e+00    4.867410e+03
  3.742923e+00    5.445355e+03
  3.795927e+00    5.938032e+03
  3.848931e+00    5.718542e+03
  3.901935e+00    5.830208e+03
  3.954939e+00    7.144296e+03
  4.007943e+00    9.052381e+03
  4.060947e+00    8.590826e+03
  4.113951e+00    7.048246e+03
  4.166956e+00    6.347160e+03
  4.219960e+00    6.160824e+03
  4.272964e+00    6.665843e+03
  4.325968e+00    9.193801e+03
  4.378972e+00    1.258305e+04
  4.431976e+00    1.218690e+04
  4.484980e+00    1.125228e+04
  4.537984e+00    8.709426e+03
  4.590988e+00    6.360597e+03
  4.643992e+00    5.397374e+03
  4.696997e+00    5.087004e+03
  4.750001e+00    4.976292e+03
  4.803005e+00    4.998531e+03
  4.856009e+00    5.175569e+03
  4.909013e+00    5.302519e+03
  4.962017e+00    5.333760e+03
  5.015021e+00    5.711638e+03
  5.068025e+00    6.289944e+03
  5.121029e+00    6.131251e+03
  5.174033e+00    5.386003e+03
  5.227038e+00    4.803445e+03
  5.280042e+00    4.543715e+03
  5.333046e+00    4.525290e+03
  5.386050e+00    4.415027e+03
  5.439054e+00    4.230678e+03
  5.492058e+00    4.188286e+03
  5.545062e+00    3.901073e+03
  5.598066e+00    3.623128e+03
  5.651070e+00    3.535168e+03
  5.704074e+00    3.610637e+03
  5.757079e+00    3.852655e+03
  5.810083e+00    4.026091e+03
  5.863087e+00    4.209331e+03
  5.916091e+00    4.756571e+03
  5.969095e+00    4.795719e+03
  6.022099e+00    4.227194e+03
  6.075103e+00    3.936127e+03
  6.128107e+00    3.961307e+03
  6.181111e+00    4.095319e+03
  6.234115e+00    3.987618e+03
  6.287120e+00    3.844793e+03
  6.340124e+00    3.746146e+03
  6.393128e+00    3.630366e+03
  6.446132e+00    3.504760e+03
  6.499136e+00    3.489151e+03
  6.552140e+00    3.580520e+03
  6.605144e+00    3.711049e+03
  6.658148e+00    3.987051e+03
  6.711152e+00    4.195126e+03
  6.764156e+00    3.920534e+03
  6.817161e+00    3.564213e+03
  6.870165e+00    3.441877e+03
  6.923169e+00    3.425698e+03
  6.976173e+00    3.350476e+03
  7.029177e+00    3.303353e+03
  7.082181e+00    3.291470e+03
  7.135185e+00    3.222501e+03
  7.188189e+00    3.157634e+03
  7.241193e+00    3.164917e+03
  7.294197e+00    3.272890e+03
  7.347202e+00    3.458944e+03
  7.400206e+00    3.522197e+03
  7.453210e+00    3.445011e+03
  7.506214e+00    3.577064e+03
  7.559218e+00    3.916487e+03
  7.612222e+00    3.876336e+03
  7.665226e+00    3.615599e+03
  7.718230e+00    3.641094e+03
  7.771234e+00    3.650760e+03
  7.824239e+00    3.502587e+03
  7.877243e+00    3.413156e+03
  7.930247e+00    3.428703e+03
  7.983251e+00    3.530907e+03
  8.036255e+00    3.485923e+03
  8.089259e+00    3.264348e+03
  8.142263e+00    3.110785e+03
  8.195267e+00    3.046666e+03
  8.248271e+00    3.015743e+03
  8.301275e+00    2.983322e+03
  8.354280e+00    2.949322e+03
  8.407284e+00    2.940193e+03
  8.460288e+00    2.952232e+03
  8.513292e+00    2.966960e+03
  8.566296e+00    2.990721e+03
  8.619300e+00    2.964362e+03
  8.672304e+00    2.945097e+03
  8.725308e+00    2.993685e+03
  8.778312e+00    2.984158e+03
  8.831316e+00    2.913732e+03
  8.884321e+00    2.886481e+03
  8.937325e+00    2.897239e+03
  8.990329e+00    2.906624e+03
  9.043333e+00    2.918824e+03
  9.096337e+00    2.956096e+03
  9.149341e+00    2.939549e+03
  9.202345e+00    2.839921e+03
  9.255349e+00    2.767936e+03
  9.308353e+00    2.719508e+03
  9.361357e+00    2.675760e+03
  9.414362e+00    2.655027e+03
  9.467366e+00    2.689990e+03
  9.520370e+00    2.731879e+03
  9.573374e+00    2.770350e+03
  9.626378e+00    2.795005e+03
  9.679382e+00    2.770247e+03
  9.732386e+00    2.754722e+03
  9.785390e+00    2.752740e+03
  9.838394e+00    2.704249e+03
  9.891398e+00    2.654030e+03
  9.944403e+00    2.644335e+03
  9.997407e+00    2.664360e+03
  1.005041e+01    2.699968e+03
  1.010341e+01    2.705855e+03
  1.015642e+01    2.657928e+03
  1.020942e+01    2.575926e+03
  1.026243e+01    2.517788e+03
  1.031543e+01    2.498779e+03
  1.036844e+01    2.500351e+03
  1.042144e+01    2.500312e+03
  1.047444e+01    2.515499e+03
  1.052745e+01    2.527391e+03
  1.058045e+01    2.529692e+03
  1.063346e+01    2.507479e+03
  1.068646e+01    2.492013e+03
  1.073946e+01    2.476127e+03
  1.079247e+01    2.460555e+03
  1.084547e+01    2.452900e+03
  1.089848e+01    2.475360e+03
  1.095148e+01    2.514791e+03
  1.100448e+01    2.539423e+03
  1.105749e+01    2.519212e+03
  1.111049e+01    2.471515e+03
  1.116350e+01    2.431006e+03
  1.121650e+01    2.416464e+03
  1.126951e+01    2.409255e+03
  1.132251e+01    2.418750e+03
  1.137551e+01    2.439694e+03
  1.142852e+01    2.465961e+03
  1.148152e+01    2.478602e+03
  1.153453e+01    2.496132e+03
  1.158753e+01    2.493741e+03
  1.164053e+01    2.449506e+03
  1.169354e+01    2.412847e+03
  1.174654e+01    2.428977e+03
  1.179955e+01    2.429812e+03
  1.185255e+01    2.433603e+03
  1.190555e+01    2.405404e+03
  1.195856e+01    2.370054e+03
  1.201156e+01    2.346686e+03
  1.206457e+01    2.332406e+03
  1.211757e+01    2.345987e+03
  1.217057e+01    2.364084e+03
  1.222358e+01    2.378863e+03
  1.227658e+01    2.373012e+03
  1.232959e+01    2.351000e+03
  1.238259e+01    2.329370e+03
  1.243560e+01    2.321082e+03
  1.248860e+01    2.315563e+03
  1.254160e+01    2.319906e+03
  1.259461e+01    2.324611e+03
  1.264761e+01    2.317287e+03
  1.270062e+01    2.301948e+03
  1.275362e+01    2.286754e+03
  1.280662e+01    2.277458e+03
  1.285963e+01    2.269154e+03
  1.291263e+01    2.263507e+03
  1.296564e+01    2.264333e+03
  1.301864e+01    2.270030e+03
  1.307164e+01    2.272543e+03
  1.312465e+01    2.267652e+03
  1.317765e+01    2.262767e+03
  1.323066e+01    2.245771e+03
  1.328366e+01    2.252674e+03
  1.333667e+01    2.262847e+03
  1.338967e+01    2.263075e+03
  1.344267e+01    2.253029e+03
  1.349568e+01    2.228826e+03
  1.354868e+01    2.211526e+03
  1.360169e+01    2.204789e+03
  1.365469e+01    2.202584e+03
  1.370769e+01    2.205019e+03
  1.376070e+01    2.194414e+03
  1.381370e+01    2.183824e+03
  1.386671e+01    2.167958e+03
  1.391971e+01    2.155597e+03
  1.397271e+01    2.155927e+03
  1.402572e+01    2.158143e+03
  1.407872e+01    2.152568e+03
  1.413173e+01    2.141750e+03
  1.418473e+01    2.131106e+03
  1.423773e+01    2.122331e+03
  1.429074e+01    2.114532e+03
  1.434374e+01    2.116499e+03
  1.439675e+01    2.110849e+03
  1.444975e+01    2.106899e+03
  1.450276e+01    2.098552e+03
  1.455576e+01    2.090159e+03
  1.460876e+01    2.085339e+03
  1.466177e+01    2.081799e+03
  1.471477e+01    2.082815e+03
  1.476778e+01    2.083710e+03
  1.482078e+01    2.073245e+03
  1.487378e+01    2.065141e+03
  1.492679e+01    2.060494e+03
  1.497979e+01    2.057634e+03
  1.503280e+01    2.059583e+03
  1.508580e+01    2.058290e+03
  1.513880e+01    2.057507e+03
  1.519181e+01    2.063703e+03
  1.524481e+01    2.089368e+03
  1.529782e+01    2.078800e+03
  1.535082e+01    2.072686e+03
  1.540382e+01    2.066117e+03
  1.545683e+01    2.052718e+03
  1.550983e+01    2.053848e+03
  1.556284e+01    2.049244e+03
  1.561584e+01    2.046994e+03
  1.566885e+01    2.049389e+03
  1.572185e+01    2.047059e+03
  1.577485e+01    2.045365e+03
  1.582786e+01    2.035872e+03
  1.588086e+01    2.030706e+03
  1.593387e+01    2.025709e+03
  1.598687e+01    2.021215e+03
  1.603987e+01    2.010046e+03
  1.609288e+01    1.999403e+03
  1.614588e+01    1.993243e+03
  1.619889e+01    1.996389e+03
  1.625189e+01    2.000806e+03
  1.630489e+01    1.996360e+03
  1.635790e+01    1.994669e+03
  1.641090e+01    1.992344e+03
  1.646391e+01    1.988851e+03
  1.651691e+01    1.991881e+03
  1.656992e+01    1.988290e+03
  1.662292e+01    1.982336e+03
  1.667592e+01    1.977741e+03
  1.672893e+01    1.974344e+03
  1.678193e+01    1.973688e+03
  1.683494e+01    1.970760e+03
  1.688794e+01    1.971110e+03
  1.694094e+01    1.968997e+03
  1.699395e+01    1.966071e+03
  1.704695e+01    1.963744e+03
  1.709996e+01    1.960143e+03
  1.715296e+01    1.955066e+03
  1.720596e+01    1.950812e+03
  1.725897e+01    1.943905e+03
  1.731197e+01    1.940125e+03
  1.736498e+01    1.934885e+03
  1.741798e+01    1.933128e+03
  1.747098e+01    1.933265e+03
  1.752399e+01    1.930243e+03
  1.757699e+01    1.927741e+03
  1.763000e+01    1.925858e+03
  1.768300e+01    1.922634e+03
  1.773601e+01    1.920750e+03
  1.778901e+01    1.912766e+03
  1.784201e+01    1.906217e+03
  1.789502e+01    1.906654e+03
  1.794802e+01    1.900667e+03
  1.800103e+01    1.898347e+03
  1.805403e+01    1.892568e+03
  1.810703e+01    1.886396e+03
  1.816004e+01    1.881872e+03
  1.821304e+01    1.878485e+03
  1.826605e+01    1.880688e+03
  1.831905e+01    1.871365e+03
  1.837205e+01    1.867378e+03
  1.842506e+01    1.865449e+03
  1.847806e+01    1.863125e+03
  1.853107e+01    1.862254e+03
  1.858407e+01    1.860035e+03
  1.863708e+01    1.860431e+03
  1.869008e+01    1.875450e+03
  1.874308e+01    1.865932e+03
  1.879609e+01    1.859804e+03
  1.884909e+01    1.856357e+03
  1.890210e+01    1.852625e+03
  1.895510e+01    1.847122e+03
  1.900810e+01    1.847149e+03
  1.906111e+01    1.839741e+03
  1.911411e+01    1.834073e+03
  1.916712e+01    1.829536e+03
  1.922012e+01    1.826078e+03
  1.927312e+01    1.819941e+03
  1.932613e+01    1.816617e+03
  1.937913e+01    1.810121e+03
  1.943214e+01    1.805829e+03
  1.948514e+01    1.803908e+03
  1.953814e+01    1.797412e+03
  1.959115e+01    1.793425e+03
  1.964415e+01    1.788343e+03
  1.969716e+01    1.786480e+03
  1.975016e+01    1.781495e+03
  1.980317e+01    1.776291e+03
  1.985617e+01    1.773550e+03
  1.990917e+01    1.767883e+03
  1.996218e+01    1.763478e+03
  2.001518e+01    1.759812e+03
  2.006819e+01    1.753320e+03
  2.012119e+01    1.748292e+03
  2.017419e+01    1.743240e+03
  2.022720e+01    1.736023e+03
  2.028020e+01    1.731053e+03
  2.033321e+01    1.724019e+03
  2.038621e+01    1.717470e+03
  2.043921e+01    1.714146e+03
  2.049222e+01    1.708733e+03
  2.054522e+01    1.704036e+03
  2.059823e+01    1.699688e+03
  2.065123e+01    1.693596e+03
  2.070424e+01    1.688796e+03
  2.075724e+01    1.688187e+03
  2.081024e+01    1.693757e+03
  2.086325e+01    1.684920e+03
  2.091625e+01    1.670769e+03
  2.096926e+01    1.657156e+03
  2.102226e+01    1.645336e+03
  2.107526e+01    1.636743e+03
  2.112827e+01    1.624733e+03
  2.118127e+01    1.615677e+03
  2.123428e+01    1.604483e+03
  2.128728e+01    1.597175e+03
  2.134028e+01    1.588179e+03
  2.139329e+01    1.577824e+03
  2.144629e+01    1.569547e+03
  2.149930e+01    1.560638e+03
  2.155230e+01    1.551479e+03
  2.160530e+01    1.544746e+03
  2.165831e+01    1.533144e+03
  2.171131e+01    1.527460e+03
  2.176432e+01    1.522505e+03
  2.181732e+01    1.512251e+03
  2.187033e+01    1.503795e+03
  2.192333e+01    1.497243e+03
  2.197633e+01    1.487361e+03
  2.202934e+01    1.479447e+03
  2.208234e+01    1.468985e+03
  2.213535e+01    1.460216e+03
  2.218835e+01    1.452200e+03
  2.224135e+01    1.443125e+03
  2.229436e+01    1.434245e+03
  2.234736e+01    1.429039e+03
  2.240037e+01    1.416937e+03
  2.245337e+01    1.409397e+03
  2.250637e+01    1.403339e+03
  2.255938e+01    1.395142e+03
  2.261238e+01    1.396862e+03
  2.266539e+01    1.395865e+03
  2.271839e+01    1.398055e+03
  2.277140e+01    1.396261e+03
  2.282440e+01    1.396797e+03
  2.287740e+01    1.394076e+03
  2.293041e+01    1.393006e+03
  2.298341e+01    1.392002e+03
  2.303642e+01    1.391898e+03
  2.308942e+01    1.389898e+03
  2.314242e+01    1.385549e+03
  2.319543e+01    1.382174e+03
  2.324843e+01    1.378726e+03
  2.330144e+01    1.375539e+03
  2.335444e+01    1.374021e+03
  2.340744e+01    1.372601e+03
  2.346045e+01    1.372264e+03
  2.351345e+01    1.368569e+03
  2.356646e+01    1.363632e+03
  2.361946e+01    1.365302e+03
  2.367246e+01    1.365309e+03
  2.372547e+01    1.357967e+03
  2.377847e+01    1.352159e+03
  2.383148e+01    1.350776e+03
  2.388448e+01    1.347602e+03
  2.393749e+01    1.344638e+03
  2.399049e+01    1.340327e+03
  2.404349e+01    1.338400e+03
  2.409650e+01    1.336257e+03
  2.414950e+01    1.328848e+03
  2.420251e+01    1.325399e+03
  2.425551e+01    1.319826e+03
  2.430851e+01    1.314662e+03
  2.436152e+01    1.307943e+03
  2.441452e+01    1.302179e+03
  2.446753e+01    1.297491e+03
  2.452053e+01    1.290310e+03
  2.457353e+01    1.288516e+03
  2.462654e+01    1.285233e+03
  2.467954e+01    1.272823e+03
  2.473255e+01    1.264834e+03
  2.478555e+01    1.255830e+03
  2.483855e+01    1.243318e+03
  2.489156e+01    1.236820e+03
  2.494456e+01    1.225571e+03
  2.499757e+01    1.218656e+03
  2.505057e+01    1.208168e+03
  2.510358e+01    1.202383e+03
  2.515658e+01    1.194657e+03
  2.520958e+01    1.189967e+03
  2.526259e+01    1.185125e+03
  2.531559e+01    1.177184e+03
  2.536860e+01    1.170754e+03
  2.542160e+01    1.161552e+03
  2.547460e+01    1.156022e+03
  2.552761e+01    1.145640e+03
  2.558061e+01    1.143223e+03
  2.563362e+01    1.140958e+03
  2.568662e+01    1.129704e+03
  2.573962e+01    1.122201e+03
  2.579263e+01    1.115631e+03
  2.584563e+01    1.103436e+03
  2.589864e+01    1.101935e+03
  2.595164e+01    1.101518e+03
  2.600465e+01    1.097044e+03
  2.605765e+01    1.096853e+03
  2.611065e+01    1.089972e+03
  2.616366e+01    1.090646e+03
  2.621666e+01    1.084281e+03
  2.626967e+01    1.072659e+03
  2.632267e+01    1.075661e+03
  2.637567e+01    1.063255e+03
  2.642868e+01    1.045549e+03
  2.648168e+01    1.016701e+03
