# == pyFAI calibration ==
# Distance Sample to Detector: 0.2945755399789714 m
# PONI: 2.880e-01, 2.450e-01 m
# Rotations: -0.007291 -0.010887 -0.000000 rad
# 
# == Fit2d calibration ==
# Distance Sample-beamCenter: 294.601 mm
# Center: x=1437.174, y=1655.617 pix
# Tilt: 0.751 deg  TiltPlanRot: -56.193 deg
# 
# Detector Pilatus CdTe 2M	 PixelSize= 1.720e-04, 1.720e-04 m
#    Detector has a mask: True 
#    Detector has a dark current: False 
#    detector has a flat field: False 
# 
# Wavelength: 2.0732883349524408e-11 m
# Mask applied: from detector
# Dark current applied: False
# Flat field applied: False
# Polarization factor: 0.9
# Normalization factor: 1.0
# --> /gpfs/current/raw/FMue_2/FMue_2_20231024_120911_00281.dat
#        q_A^-1             I 
  3.263564e-02             nan
  8.563974e-02             nan
  1.386438e-01             nan
  1.916479e-01             nan
  2.446520e-01    3.848309e+04
  2.976561e-01    2.974831e+04
  3.506602e-01    1.593039e+04
  4.036643e-01    1.117644e+04
  4.566684e-01    9.511030e+03
  5.096725e-01    9.059654e+03
  5.626766e-01    8.737354e+03
  6.156807e-01    8.369370e+03
  6.686848e-01    8.202041e+03
  7.216890e-01    8.242735e+03
  7.746931e-01    8.242673e+03
  8.276972e-01    8.316374e+03
  8.807013e-01    8.375898e+03
  9.337054e-01    8.535864e+03
  9.867095e-01    8.685730e+03
  1.039714e+00    8.944188e+03
  1.092718e+00    9.261051e+03
  1.145722e+00    9.753387e+03
  1.198726e+00    1.032953e+04
  1.251730e+00    1.103797e+04
  1.304734e+00    1.192049e+04
  1.357738e+00    1.279680e+04
  1.410742e+00    1.348670e+04
  1.463746e+00    1.383345e+04
  1.516750e+00    1.378086e+04
  1.569755e+00    1.329045e+04
  1.622759e+00    1.263155e+04
  1.675763e+00    1.177664e+04
  1.728767e+00    1.088671e+04
  1.781771e+00    1.007470e+04
  1.834775e+00    9.408295e+03
  1.887779e+00    8.839782e+03
  1.940783e+00    8.469918e+03
  1.993787e+00    8.152065e+03
  2.046791e+00    7.960976e+03
  2.099796e+00    7.898949e+03
  2.152800e+00    7.902143e+03
  2.205804e+00    7.951339e+03
  2.258808e+00    7.984395e+03
  2.311812e+00    7.971519e+03
  2.364816e+00    8.006656e+03
  2.417820e+00    8.295765e+03
  2.470824e+00    8.935663e+03
  2.523828e+00    1.003871e+04
  2.576832e+00    1.097063e+04
  2.629837e+00    9.739301e+03
  2.682841e+00    8.154227e+03
  2.735845e+00    7.588731e+03
  2.788849e+00    6.968820e+03
  2.841853e+00    6.685403e+03
  2.894857e+00    7.375532e+03
  2.947861e+00    9.556908e+03
  3.000865e+00    1.194486e+04
  3.053869e+00    1.207729e+04
  3.106874e+00    1.041840e+04
  3.159878e+00    9.567999e+03
  3.212882e+00    8.299113e+03
  3.265886e+00    6.357645e+03
  3.318890e+00    5.490920e+03
  3.371894e+00    5.348939e+03
  3.424898e+00    5.524737e+03
  3.477902e+00    5.926051e+03
  3.530906e+00    5.897367e+03
  3.583910e+00    5.342536e+03
  3.636915e+00    4.970492e+03
  3.689919e+00    4.872148e+03
  3.742923e+00    4.882014e+03
  3.795927e+00    4.968900e+03
  3.848931e+00    5.077798e+03
  3.901935e+00    5.246321e+03
  3.954939e+00    5.471701e+03
  4.007943e+00    5.792742e+03
  4.060947e+00    6.208944e+03
  4.113951e+00    6.762746e+03
  4.166956e+00    7.704325e+03
  4.219960e+00    8.683991e+03
  4.272964e+00    7.941324e+03
  4.325968e+00    6.975683e+03
  4.378972e+00    7.400993e+03
  4.431976e+00    9.477412e+03
  4.484980e+00    1.052354e+04
  4.537984e+00    8.347234e+03
  4.590988e+00    6.307369e+03
  4.643992e+00    5.582857e+03
  4.696997e+00    5.396619e+03
  4.750001e+00    5.358451e+03
  4.803005e+00    5.417357e+03
  4.856009e+00    5.660406e+03
  4.909013e+00    6.183721e+03
  4.962017e+00    6.676068e+03
  5.015021e+00    6.383522e+03
  5.068025e+00    5.834809e+03
  5.121029e+00    5.661171e+03
  5.174033e+00    5.532587e+03
  5.227038e+00    5.114736e+03
  5.280042e+00    4.695377e+03
  5.333046e+00    4.430560e+03
  5.386050e+00    4.285350e+03
  5.439054e+00    4.281987e+03
  5.492058e+00    4.244986e+03
  5.545062e+00    3.961271e+03
  5.598066e+00    3.748522e+03
  5.651070e+00    3.691651e+03
  5.704074e+00    3.744410e+03
  5.757079e+00    3.961373e+03
  5.810083e+00    4.337471e+03
  5.863087e+00    4.397644e+03
  5.916091e+00    4.179085e+03
  5.969095e+00    4.106967e+03
  6.022099e+00    4.102772e+03
  6.075103e+00    4.118530e+03
  6.128107e+00    4.012142e+03
  6.181111e+00    3.859143e+03
  6.234115e+00    3.855691e+03
  6.287120e+00    3.938550e+03
  6.340124e+00    3.946298e+03
  6.393128e+00    3.896977e+03
  6.446132e+00    3.831689e+03
  6.499136e+00    3.802074e+03
  6.552140e+00    3.754577e+03
  6.605144e+00    3.758246e+03
  6.658148e+00    3.779638e+03
  6.711152e+00    3.674864e+03
  6.764156e+00    3.528184e+03
  6.817161e+00    3.416346e+03
  6.870165e+00    3.324537e+03
  6.923169e+00    3.267679e+03
  6.976173e+00    3.307061e+03
  7.029177e+00    3.380019e+03
  7.082181e+00    3.405818e+03
  7.135185e+00    3.356823e+03
  7.188189e+00    3.313088e+03
  7.241193e+00    3.334717e+03
  7.294197e+00    3.395318e+03
  7.347202e+00    3.366884e+03
  7.400206e+00    3.306616e+03
  7.453210e+00    3.278312e+03
  7.506214e+00    3.291445e+03
  7.559218e+00    3.330753e+03
  7.612222e+00    3.435705e+03
  7.665226e+00    3.631021e+03
  7.718230e+00    3.818009e+03
  7.771234e+00    3.780145e+03
  7.824239e+00    3.570991e+03
  7.877243e+00    3.397783e+03
  7.930247e+00    3.238164e+03
  7.983251e+00    3.132575e+03
  8.036255e+00    3.098120e+03
  8.089259e+00    3.084760e+03
  8.142263e+00    3.085337e+03
  8.195267e+00    3.080376e+03
  8.248271e+00    3.072126e+03
  8.301275e+00    3.055595e+03
  8.354280e+00    3.045641e+03
  8.407284e+00    3.043891e+03
  8.460288e+00    3.038258e+03
  8.513292e+00    3.025581e+03
  8.566296e+00    3.049024e+03
  8.619300e+00    3.059269e+03
  8.672304e+00    3.041046e+03
  8.725308e+00    3.023615e+03
  8.778312e+00    3.008271e+03
  8.831316e+00    3.002976e+03
  8.884321e+00    3.007168e+03
  8.937325e+00    2.995000e+03
  8.990329e+00    2.947062e+03
  9.043333e+00    2.880420e+03
  9.096337e+00    2.843932e+03
  9.149341e+00    2.825333e+03
  9.202345e+00    2.784024e+03
  9.255349e+00    2.746684e+03
  9.308353e+00    2.720056e+03
  9.361357e+00    2.712821e+03
  9.414362e+00    2.702970e+03
  9.467366e+00    2.701648e+03
  9.520370e+00    2.678262e+03
  9.573374e+00    2.647150e+03
  9.626378e+00    2.633219e+03
  9.679382e+00    2.631200e+03
  9.732386e+00    2.631001e+03
  9.785390e+00    2.626372e+03
  9.838394e+00    2.626665e+03
  9.891398e+00    2.627163e+03
  9.944403e+00    2.624055e+03
  9.997407e+00    2.604958e+03
  1.005041e+01    2.576091e+03
  1.010341e+01    2.537636e+03
  1.015642e+01    2.518415e+03
  1.020942e+01    2.508399e+03
  1.026243e+01    2.504852e+03
  1.031543e+01    2.525079e+03
  1.036844e+01    2.562963e+03
  1.042144e+01    2.575433e+03
  1.047444e+01    2.572067e+03
  1.052745e+01    2.557574e+03
  1.058045e+01    2.547531e+03
  1.063346e+01    2.526763e+03
  1.068646e+01    2.506591e+03
  1.073946e+01    2.487828e+03
  1.079247e+01    2.473307e+03
  1.084547e+01    2.460264e+03
  1.089848e+01    2.461359e+03
  1.095148e+01    2.459011e+03
  1.100448e+01    2.452376e+03
  1.105749e+01    2.448018e+03
  1.111049e+01    2.444184e+03
  1.116350e+01    2.437890e+03
  1.121650e+01    2.424586e+03
  1.126951e+01    2.412013e+03
  1.132251e+01    2.403016e+03
  1.137551e+01    2.392796e+03
  1.142852e+01    2.389230e+03
  1.148152e+01    2.384742e+03
  1.153453e+01    2.379385e+03
  1.158753e+01    2.376558e+03
  1.164053e+01    2.372914e+03
  1.169354e+01    2.370516e+03
  1.174654e+01    2.393912e+03
  1.179955e+01    2.385154e+03
  1.185255e+01    2.376679e+03
  1.190555e+01    2.359936e+03
  1.195856e+01    2.348618e+03
  1.201156e+01    2.339652e+03
  1.206457e+01    2.331831e+03
  1.211757e+01    2.335698e+03
  1.217057e+01    2.336715e+03
  1.222358e+01    2.332523e+03
  1.227658e+01    2.331673e+03
  1.232959e+01    2.330141e+03
  1.238259e+01    2.324365e+03
  1.243560e+01    2.327138e+03
  1.248860e+01    2.326012e+03
  1.254160e+01    2.328076e+03
  1.259461e+01    2.325423e+03
  1.264761e+01    2.317384e+03
  1.270062e+01    2.304012e+03
  1.275362e+01    2.294077e+03
  1.280662e+01    2.283896e+03
  1.285963e+01    2.274819e+03
  1.291263e+01    2.266120e+03
  1.296564e+01    2.255582e+03
  1.301864e+01    2.250069e+03
  1.307164e+01    2.243183e+03
  1.312465e+01    2.235651e+03
  1.317765e+01    2.230119e+03
  1.323066e+01    2.211312e+03
  1.328366e+01    2.200878e+03
  1.333667e+01    2.194101e+03
  1.338967e+01    2.191115e+03
  1.344267e+01    2.203901e+03
  1.349568e+01    2.199132e+03
  1.354868e+01    2.190222e+03
  1.360169e+01    2.179597e+03
  1.365469e+01    2.166117e+03
  1.370769e+01    2.157502e+03
  1.376070e+01    2.144488e+03
  1.381370e+01    2.136123e+03
  1.386671e+01    2.128854e+03
  1.391971e+01    2.122969e+03
  1.397271e+01    2.117827e+03
  1.402572e+01    2.113057e+03
  1.407872e+01    2.106168e+03
  1.413173e+01    2.101423e+03
  1.418473e+01    2.098572e+03
  1.423773e+01    2.093107e+03
  1.429074e+01    2.086504e+03
  1.434374e+01    2.085736e+03
  1.439675e+01    2.078436e+03
  1.444975e+01    2.077292e+03
  1.450276e+01    2.072146e+03
  1.455576e+01    2.065013e+03
  1.460876e+01    2.062645e+03
  1.466177e+01    2.058394e+03
  1.471477e+01    2.058531e+03
  1.476778e+01    2.059715e+03
  1.482078e+01    2.059849e+03
  1.487378e+01    2.052670e+03
  1.492679e+01    2.049219e+03
  1.497979e+01    2.045965e+03
  1.503280e+01    2.043000e+03
  1.508580e+01    2.041780e+03
  1.513880e+01    2.038866e+03
  1.519181e+01    2.044010e+03
  1.524481e+01    2.069177e+03
  1.529782e+01    2.049257e+03
  1.535082e+01    2.040282e+03
  1.540382e+01    2.031939e+03
  1.545683e+01    2.023179e+03
  1.550983e+01    2.029368e+03
  1.556284e+01    2.023794e+03
  1.561584e+01    2.019071e+03
  1.566885e+01    2.013640e+03
  1.572185e+01    2.012500e+03
  1.577485e+01    2.008493e+03
  1.582786e+01    2.005137e+03
  1.588086e+01    2.002016e+03
  1.593387e+01    1.999754e+03
  1.598687e+01    1.999223e+03
  1.603987e+01    1.988801e+03
  1.609288e+01    1.980991e+03
  1.614588e+01    1.974397e+03
  1.619889e+01    1.976984e+03
  1.625189e+01    1.979990e+03
  1.630489e+01    1.977145e+03
  1.635790e+01    1.973458e+03
  1.641090e+01    1.969749e+03
  1.646391e+01    1.964045e+03
  1.651691e+01    1.960057e+03
  1.656992e+01    1.954964e+03
  1.662292e+01    1.951058e+03
  1.667592e+01    1.950260e+03
  1.672893e+01    1.947084e+03
  1.678193e+01    1.944922e+03
  1.683494e+01    1.942493e+03
  1.688794e+01    1.942064e+03
  1.694094e+01    1.938250e+03
  1.699395e+01    1.933109e+03
  1.704695e+01    1.930995e+03
  1.709996e+01    1.926364e+03
  1.715296e+01    1.922542e+03
  1.720596e+01    1.919781e+03
  1.725897e+01    1.916137e+03
  1.731197e+01    1.912620e+03
  1.736498e+01    1.908059e+03
  1.741798e+01    1.906087e+03
  1.747098e+01    1.905437e+03
  1.752399e+01    1.902899e+03
  1.757699e+01    1.897309e+03
  1.763000e+01    1.892384e+03
  1.768300e+01    1.887982e+03
  1.773601e+01    1.884769e+03
  1.778901e+01    1.880417e+03
  1.784201e+01    1.873586e+03
  1.789502e+01    1.872632e+03
  1.794802e+01    1.866187e+03
  1.800103e+01    1.866879e+03
  1.805403e+01    1.863497e+03
  1.810703e+01    1.855626e+03
  1.816004e+01    1.851258e+03
  1.821304e+01    1.847661e+03
  1.826605e+01    1.853445e+03
  1.831905e+01    1.843418e+03
  1.837205e+01    1.839709e+03
  1.842506e+01    1.837789e+03
  1.847806e+01    1.834159e+03
  1.853107e+01    1.833203e+03
  1.858407e+01    1.831609e+03
  1.863708e+01    1.832137e+03
  1.869008e+01    1.846018e+03
  1.874308e+01    1.834989e+03
  1.879609e+01    1.830931e+03
  1.884909e+01    1.825605e+03
  1.890210e+01    1.821350e+03
  1.895510e+01    1.815239e+03
  1.900810e+01    1.811511e+03
  1.906111e+01    1.804585e+03
  1.911411e+01    1.797812e+03
  1.916712e+01    1.796462e+03
  1.922012e+01    1.791980e+03
  1.927312e+01    1.784378e+03
  1.932613e+01    1.781501e+03
  1.937913e+01    1.775299e+03
  1.943214e+01    1.769358e+03
  1.948514e+01    1.766797e+03
  1.953814e+01    1.760087e+03
  1.959115e+01    1.756711e+03
  1.964415e+01    1.751454e+03
  1.969716e+01    1.747140e+03
  1.975016e+01    1.741766e+03
  1.980317e+01    1.738221e+03
  1.985617e+01    1.733600e+03
  1.990917e+01    1.728106e+03
  1.996218e+01    1.722216e+03
  2.001518e+01    1.718224e+03
  2.006819e+01    1.711296e+03
  2.012119e+01    1.705833e+03
  2.017419e+01    1.700682e+03
  2.022720e+01    1.696200e+03
  2.028020e+01    1.688503e+03
  2.033321e+01    1.682213e+03
  2.038621e+01    1.676858e+03
  2.043921e+01    1.673085e+03
  2.049222e+01    1.667779e+03
  2.054522e+01    1.663345e+03
  2.059823e+01    1.659196e+03
  2.065123e+01    1.652328e+03
  2.070424e+01    1.648241e+03
  2.075724e+01    1.648311e+03
  2.081024e+01    1.655061e+03
  2.086325e+01    1.645336e+03
  2.091625e+01    1.628025e+03
  2.096926e+01    1.615905e+03
  2.102226e+01    1.603908e+03
  2.107526e+01    1.593569e+03
  2.112827e+01    1.583629e+03
  2.118127e+01    1.575984e+03
  2.123428e+01    1.566905e+03
  2.128728e+01    1.557802e+03
  2.134028e+01    1.553495e+03
  2.139329e+01    1.538897e+03
  2.144629e+01    1.530378e+03
  2.149930e+01    1.520247e+03
  2.155230e+01    1.511689e+03
  2.160530e+01    1.503860e+03
  2.165831e+01    1.494241e+03
  2.171131e+01    1.489242e+03
  2.176432e+01    1.481695e+03
  2.181732e+01    1.473507e+03
  2.187033e+01    1.462791e+03
  2.192333e+01    1.457415e+03
  2.197633e+01    1.448828e+03
  2.202934e+01    1.440728e+03
  2.208234e+01    1.429817e+03
  2.213535e+01    1.422164e+03
  2.218835e+01    1.413688e+03
  2.224135e+01    1.405386e+03
  2.229436e+01    1.398323e+03
  2.234736e+01    1.391112e+03
  2.240037e+01    1.380581e+03
  2.245337e+01    1.373238e+03
  2.250637e+01    1.365738e+03
  2.255938e+01    1.358460e+03
  2.261238e+01    1.361841e+03
  2.266539e+01    1.361797e+03
  2.271839e+01    1.363696e+03
  2.277140e+01    1.362974e+03
  2.282440e+01    1.361971e+03
  2.287740e+01    1.360008e+03
  2.293041e+01    1.359188e+03
  2.298341e+01    1.357234e+03
  2.303642e+01    1.357461e+03
  2.308942e+01    1.354870e+03
  2.314242e+01    1.352660e+03
  2.319543e+01    1.349978e+03
  2.324843e+01    1.344850e+03
  2.330144e+01    1.340490e+03
  2.335444e+01    1.338394e+03
  2.340744e+01    1.338692e+03
  2.346045e+01    1.337923e+03
  2.351345e+01    1.334282e+03
  2.356646e+01    1.330651e+03
  2.361946e+01    1.330738e+03
  2.367246e+01    1.330479e+03
  2.372547e+01    1.324391e+03
  2.377847e+01    1.324907e+03
  2.383148e+01    1.314932e+03
  2.388448e+01    1.312663e+03
  2.393749e+01    1.308301e+03
  2.399049e+01    1.304409e+03
  2.404349e+01    1.304102e+03
  2.409650e+01    1.298453e+03
  2.414950e+01    1.293440e+03
  2.420251e+01    1.284081e+03
  2.425551e+01    1.281450e+03
  2.430851e+01    1.274092e+03
  2.436152e+01    1.269560e+03
  2.441452e+01    1.263325e+03
  2.446753e+01    1.257857e+03
  2.452053e+01    1.251065e+03
  2.457353e+01    1.246712e+03
  2.462654e+01    1.241854e+03
  2.467954e+01    1.233752e+03
  2.473255e+01    1.226388e+03
  2.478555e+01    1.214619e+03
  2.483855e+01    1.204119e+03
  2.489156e+01    1.199096e+03
  2.494456e+01    1.186446e+03
  2.499757e+01    1.180720e+03
  2.505057e+01    1.168992e+03
  2.510358e+01    1.163934e+03
  2.515658e+01    1.161589e+03
  2.520958e+01    1.156848e+03
  2.526259e+01    1.148098e+03
  2.531559e+01    1.142345e+03
  2.536860e+01    1.137185e+03
  2.542160e+01    1.130750e+03
  2.547460e+01    1.120461e+03
  2.552761e+01    1.114453e+03
  2.558061e+01    1.113345e+03
  2.563362e+01    1.110672e+03
  2.568662e+01    1.100271e+03
  2.573962e+01    1.094097e+03
  2.579263e+01    1.086344e+03
  2.584563e+01    1.080742e+03
  2.589864e+01    1.076506e+03
  2.595164e+01    1.075216e+03
  2.600465e+01    1.069132e+03
  2.605765e+01    1.066567e+03
  2.611065e+01    1.069453e+03
  2.616366e+01    1.066402e+03
  2.621666e+01    1.058326e+03
  2.626967e+01    1.047305e+03
  2.632267e+01    1.044019e+03
  2.637567e+01    1.039012e+03
  2.642868e+01    1.018712e+03
  2.648168e+01    9.982999e+02
