# == pyFAI calibration ==
# Distance Sample to Detector: 0.2945755399789714 m
# PONI: 2.880e-01, 2.450e-01 m
# Rotations: -0.007291 -0.010887 -0.000000 rad
# 
# == Fit2d calibration ==
# Distance Sample-beamCenter: 294.601 mm
# Center: x=1437.174, y=1655.617 pix
# Tilt: 0.751 deg  TiltPlanRot: -56.193 deg
# 
# Detector Pilatus CdTe 2M	 PixelSize= 1.720e-04, 1.720e-04 m
#    Detector has a mask: True 
#    Detector has a dark current: False 
#    detector has a flat field: False 
# 
# Wavelength: 2.0732883349524408e-11 m
# Mask applied: from detector
# Dark current applied: False
# Flat field applied: False
# Polarization factor: 0.9
# Normalization factor: 1.0
# --> /gpfs/current/raw/FMue_2/FMue_2_20231024_120911_00390.dat
#        q_A^-1             I 
  3.263564e-02             nan
  8.563974e-02             nan
  1.386438e-01             nan
  1.916479e-01             nan
  2.446520e-01    3.768948e+04
  2.976561e-01    2.917209e+04
  3.506602e-01    1.562452e+04
  4.036643e-01    1.094150e+04
  4.566684e-01    9.323111e+03
  5.096725e-01    8.862252e+03
  5.626766e-01    8.578263e+03
  6.156807e-01    8.221184e+03
  6.686848e-01    8.066686e+03
  7.216890e-01    8.116484e+03
  7.746931e-01    8.117256e+03
  8.276972e-01    8.195811e+03
  8.807013e-01    8.270034e+03
  9.337054e-01    8.407203e+03
  9.867095e-01    8.560572e+03
  1.039714e+00    8.802231e+03
  1.092718e+00    9.128023e+03
  1.145722e+00    9.609406e+03
  1.198726e+00    1.019127e+04
  1.251730e+00    1.088484e+04
  1.304734e+00    1.176035e+04
  1.357738e+00    1.262050e+04
  1.410742e+00    1.329881e+04
  1.463746e+00    1.362629e+04
  1.516750e+00    1.357152e+04
  1.569755e+00    1.309708e+04
  1.622759e+00    1.244321e+04
  1.675763e+00    1.159457e+04
  1.728767e+00    1.069906e+04
  1.781771e+00    9.904079e+03
  1.834775e+00    9.246352e+03
  1.887779e+00    8.668113e+03
  1.940783e+00    8.297379e+03
  1.993787e+00    7.977572e+03
  2.046791e+00    7.783121e+03
  2.099796e+00    7.713638e+03
  2.152800e+00    7.712988e+03
  2.205804e+00    7.743816e+03
  2.258808e+00    7.729187e+03
  2.311812e+00    7.669431e+03
  2.364816e+00    7.656852e+03
  2.417820e+00    7.879380e+03
  2.470824e+00    8.446124e+03
  2.523828e+00    9.331719e+03
  2.576832e+00    9.933452e+03
  2.629837e+00    9.094513e+03
  2.682841e+00    7.877313e+03
  2.735845e+00    7.370220e+03
  2.788849e+00    6.752959e+03
  2.841853e+00    6.446097e+03
  2.894857e+00    6.929786e+03
  2.947861e+00    8.519661e+03
  3.000865e+00    1.162539e+04
  3.053869e+00    1.369018e+04
  3.106874e+00    1.169924e+04
  3.159878e+00    9.987515e+03
  3.212882e+00    8.483632e+03
  3.265886e+00    6.498810e+03
  3.318890e+00    5.639203e+03
  3.371894e+00    5.522352e+03
  3.424898e+00    5.833825e+03
  3.477902e+00    6.521412e+03
  3.530906e+00    6.542793e+03
  3.583910e+00    5.651556e+03
  3.636915e+00    5.037886e+03
  3.689919e+00    4.859836e+03
  3.742923e+00    4.840898e+03
  3.795927e+00    4.907256e+03
  3.848931e+00    4.999876e+03
  3.901935e+00    5.154034e+03
  3.954939e+00    5.369828e+03
  4.007943e+00    5.673195e+03
  4.060947e+00    6.018343e+03
  4.113951e+00    6.394759e+03
  4.166956e+00    6.878909e+03
  4.219960e+00    7.431342e+03
  4.272964e+00    7.194773e+03
  4.325968e+00    6.771412e+03
  4.378972e+00    7.331120e+03
  4.431976e+00    9.395104e+03
  4.484980e+00    1.039918e+04
  4.537984e+00    8.205146e+03
  4.590988e+00    6.177386e+03
  4.643992e+00    5.445097e+03
  4.696997e+00    5.252869e+03
  4.750001e+00    5.204104e+03
  4.803005e+00    5.252420e+03
  4.856009e+00    5.455825e+03
  4.909013e+00    5.978757e+03
  4.962017e+00    6.709667e+03
  5.015021e+00    6.570444e+03
  5.068025e+00    5.840108e+03
  5.121029e+00    5.487967e+03
  5.174033e+00    5.285422e+03
  5.227038e+00    4.968416e+03
  5.280042e+00    4.634378e+03
  5.333046e+00    4.396291e+03
  5.386050e+00    4.260046e+03
  5.439054e+00    4.261621e+03
  5.492058e+00    4.228066e+03
  5.545062e+00    3.948211e+03
  5.598066e+00    3.746779e+03
  5.651070e+00    3.705069e+03
  5.704074e+00    3.787055e+03
  5.757079e+00    4.111726e+03
  5.810083e+00    4.718586e+03
  5.863087e+00    4.799063e+03
  5.916091e+00    4.310883e+03
  5.969095e+00    4.094599e+03
  6.022099e+00    4.099131e+03
  6.075103e+00    4.196136e+03
  6.128107e+00    4.084112e+03
  6.181111e+00    3.845430e+03
  6.234115e+00    3.793312e+03
  6.287120e+00    3.850419e+03
  6.340124e+00    3.831643e+03
  6.393128e+00    3.751169e+03
  6.446132e+00    3.649134e+03
  6.499136e+00    3.595620e+03
  6.552140e+00    3.557788e+03
  6.605144e+00    3.554473e+03
  6.658148e+00    3.558552e+03
  6.711152e+00    3.503089e+03
  6.764156e+00    3.422936e+03
  6.817161e+00    3.340792e+03
  6.870165e+00    3.262494e+03
  6.923169e+00    3.211217e+03
  6.976173e+00    3.258272e+03
  7.029177e+00    3.332303e+03
  7.082181e+00    3.349275e+03
  7.135185e+00    3.277862e+03
  7.188189e+00    3.209750e+03
  7.241193e+00    3.198476e+03
  7.294197e+00    3.229016e+03
  7.347202e+00    3.234582e+03
  7.400206e+00    3.225448e+03
  7.453210e+00    3.223773e+03
  7.506214e+00    3.254963e+03
  7.559218e+00    3.312793e+03
  7.612222e+00    3.453484e+03
  7.665226e+00    3.682601e+03
  7.718230e+00    3.855443e+03
  7.771234e+00    3.791845e+03
  7.824239e+00    3.620635e+03
  7.877243e+00    3.479871e+03
  7.930247e+00    3.279574e+03
  7.983251e+00    3.136128e+03
  8.036255e+00    3.081796e+03
  8.089259e+00    3.057696e+03
  8.142263e+00    3.053906e+03
  8.195267e+00    3.043996e+03
  8.248271e+00    3.028586e+03
  8.301275e+00    3.005902e+03
  8.354280e+00    2.989942e+03
  8.407284e+00    2.982399e+03
  8.460288e+00    2.979595e+03
  8.513292e+00    2.979489e+03
  8.566296e+00    3.023147e+03
  8.619300e+00    3.048149e+03
  8.672304e+00    3.013262e+03
  8.725308e+00    2.967799e+03
  8.778312e+00    2.937112e+03
  8.831316e+00    2.923834e+03
  8.884321e+00    2.930936e+03
  8.937325e+00    2.926174e+03
  8.990329e+00    2.892898e+03
  9.043333e+00    2.845437e+03
  9.096337e+00    2.832229e+03
  9.149341e+00    2.826445e+03
  9.202345e+00    2.766927e+03
  9.255349e+00    2.710211e+03
  9.308353e+00    2.671054e+03
  9.361357e+00    2.658843e+03
  9.414362e+00    2.641513e+03
  9.467366e+00    2.641730e+03
  9.520370e+00    2.620889e+03
  9.573374e+00    2.593701e+03
  9.626378e+00    2.582728e+03
  9.679382e+00    2.576487e+03
  9.732386e+00    2.575280e+03
  9.785390e+00    2.572256e+03
  9.838394e+00    2.574396e+03
  9.891398e+00    2.583836e+03
  9.944403e+00    2.588399e+03
  9.997407e+00    2.574426e+03
  1.005041e+01    2.545509e+03
  1.010341e+01    2.504016e+03
  1.015642e+01    2.482373e+03
  1.020942e+01    2.473302e+03
  1.026243e+01    2.472618e+03
  1.031543e+01    2.497083e+03
  1.036844e+01    2.551895e+03
  1.042144e+01    2.574684e+03
  1.047444e+01    2.566642e+03
  1.052745e+01    2.547688e+03
  1.058045e+01    2.529420e+03
  1.063346e+01    2.495736e+03
  1.068646e+01    2.472410e+03
  1.073946e+01    2.450474e+03
  1.079247e+01    2.437137e+03
  1.084547e+01    2.425686e+03
  1.089848e+01    2.425300e+03
  1.095148e+01    2.421193e+03
  1.100448e+01    2.415036e+03
  1.105749e+01    2.410705e+03
  1.111049e+01    2.409356e+03
  1.116350e+01    2.398832e+03
  1.121650e+01    2.387400e+03
  1.126951e+01    2.374788e+03
  1.132251e+01    2.365695e+03
  1.137551e+01    2.357805e+03
  1.142852e+01    2.356313e+03
  1.148152e+01    2.356846e+03
  1.153453e+01    2.356437e+03
  1.158753e+01    2.355227e+03
  1.164053e+01    2.349633e+03
  1.169354e+01    2.347012e+03
  1.174654e+01    2.367346e+03
  1.179955e+01    2.355557e+03
  1.185255e+01    2.345389e+03
  1.190555e+01    2.325981e+03
  1.195856e+01    2.312378e+03
  1.201156e+01    2.302189e+03
  1.206457e+01    2.294891e+03
  1.211757e+01    2.297159e+03
  1.217057e+01    2.299448e+03
  1.222358e+01    2.296776e+03
  1.227658e+01    2.294271e+03
  1.232959e+01    2.295627e+03
  1.238259e+01    2.289253e+03
  1.243560e+01    2.292625e+03
  1.248860e+01    2.294175e+03
  1.254160e+01    2.300268e+03
  1.259461e+01    2.298273e+03
  1.264761e+01    2.289459e+03
  1.270062e+01    2.274423e+03
  1.275362e+01    2.260536e+03
  1.280662e+01    2.250964e+03
  1.285963e+01    2.242080e+03
  1.291263e+01    2.231589e+03
  1.296564e+01    2.234727e+03
  1.301864e+01    2.225189e+03
  1.307164e+01    2.215225e+03
  1.312465e+01    2.208515e+03
  1.317765e+01    2.202652e+03
  1.323066e+01    2.183655e+03
  1.328366e+01    2.171423e+03
  1.333667e+01    2.166069e+03
  1.338967e+01    2.161485e+03
  1.344267e+01    2.175261e+03
  1.349568e+01    2.172249e+03
  1.354868e+01    2.163429e+03
  1.360169e+01    2.151844e+03
  1.365469e+01    2.135385e+03
  1.370769e+01    2.126640e+03
  1.376070e+01    2.114827e+03
  1.381370e+01    2.109414e+03
  1.386671e+01    2.100444e+03
  1.391971e+01    2.090938e+03
  1.397271e+01    2.087792e+03
  1.402572e+01    2.085771e+03
  1.407872e+01    2.078193e+03
  1.413173e+01    2.070754e+03
  1.418473e+01    2.070000e+03
  1.423773e+01    2.065405e+03
  1.429074e+01    2.058018e+03
  1.434374e+01    2.057835e+03
  1.439675e+01    2.052828e+03
  1.444975e+01    2.051140e+03
  1.450276e+01    2.046607e+03
  1.455576e+01    2.037822e+03
  1.460876e+01    2.034093e+03
  1.466177e+01    2.031521e+03
  1.471477e+01    2.028959e+03
  1.476778e+01    2.030573e+03
  1.482078e+01    2.027765e+03
  1.487378e+01    2.025869e+03
  1.492679e+01    2.020771e+03
  1.497979e+01    2.016635e+03
  1.503280e+01    2.014707e+03
  1.508580e+01    2.012145e+03
  1.513880e+01    2.012325e+03
  1.519181e+01    2.018289e+03
  1.524481e+01    2.041180e+03
  1.529782e+01    2.022231e+03
  1.535082e+01    2.012720e+03
  1.540382e+01    2.006050e+03
  1.545683e+01    1.995883e+03
  1.550983e+01    2.001380e+03
  1.556284e+01    1.997043e+03
  1.561584e+01    1.991093e+03
  1.566885e+01    1.987099e+03
  1.572185e+01    1.985465e+03
  1.577485e+01    1.984127e+03
  1.582786e+01    1.978762e+03
  1.588086e+01    1.975374e+03
  1.593387e+01    1.974612e+03
  1.598687e+01    1.971714e+03
  1.603987e+01    1.964680e+03
  1.609288e+01    1.955532e+03
  1.614588e+01    1.948738e+03
  1.619889e+01    1.951733e+03
  1.625189e+01    1.954514e+03
  1.630489e+01    1.949530e+03
  1.635790e+01    1.946397e+03
  1.641090e+01    1.942881e+03
  1.646391e+01    1.936903e+03
  1.651691e+01    1.934907e+03
  1.656992e+01    1.929165e+03
  1.662292e+01    1.923903e+03
  1.667592e+01    1.923465e+03
  1.672893e+01    1.920456e+03
  1.678193e+01    1.919567e+03
  1.683494e+01    1.914380e+03
  1.688794e+01    1.914014e+03
  1.694094e+01    1.911790e+03
  1.699395e+01    1.907665e+03
  1.704695e+01    1.902534e+03
  1.709996e+01    1.900213e+03
  1.715296e+01    1.895941e+03
  1.720596e+01    1.895424e+03
  1.725897e+01    1.890333e+03
  1.731197e+01    1.887400e+03
  1.736498e+01    1.882693e+03
  1.741798e+01    1.880386e+03
  1.747098e+01    1.880229e+03
  1.752399e+01    1.877496e+03
  1.757699e+01    1.871972e+03
  1.763000e+01    1.869070e+03
  1.768300e+01    1.865080e+03
  1.773601e+01    1.861063e+03
  1.778901e+01    1.855471e+03
  1.784201e+01    1.849140e+03
  1.789502e+01    1.848569e+03
  1.794802e+01    1.842849e+03
  1.800103e+01    1.842004e+03
  1.805403e+01    1.837421e+03
  1.810703e+01    1.830842e+03
  1.816004e+01    1.827688e+03
  1.821304e+01    1.825135e+03
  1.826605e+01    1.827466e+03
  1.831905e+01    1.817903e+03
  1.837205e+01    1.815687e+03
  1.842506e+01    1.812272e+03
  1.847806e+01    1.809650e+03
  1.853107e+01    1.809851e+03
  1.858407e+01    1.806676e+03
  1.863708e+01    1.807638e+03
  1.869008e+01    1.820946e+03
  1.874308e+01    1.809989e+03
  1.879609e+01    1.804275e+03
  1.884909e+01    1.801137e+03
  1.890210e+01    1.796371e+03
  1.895510e+01    1.789873e+03
  1.900810e+01    1.786257e+03
  1.906111e+01    1.780069e+03
  1.911411e+01    1.773095e+03
  1.916712e+01    1.775620e+03
  1.922012e+01    1.764937e+03
  1.927312e+01    1.758338e+03
  1.932613e+01    1.757228e+03
  1.937913e+01    1.748435e+03
  1.943214e+01    1.743641e+03
  1.948514e+01    1.742396e+03
  1.953814e+01    1.735417e+03
  1.959115e+01    1.732026e+03
  1.964415e+01    1.724972e+03
  1.969716e+01    1.722773e+03
  1.975016e+01    1.718870e+03
  1.980317e+01    1.714683e+03
  1.985617e+01    1.709107e+03
  1.990917e+01    1.703833e+03
  1.996218e+01    1.698972e+03
  2.001518e+01    1.696184e+03
  2.006819e+01    1.687467e+03
  2.012119e+01    1.683264e+03
  2.017419e+01    1.679201e+03
  2.022720e+01    1.670479e+03
  2.028020e+01    1.665450e+03
  2.033321e+01    1.658461e+03
  2.038621e+01    1.653904e+03
  2.043921e+01    1.650589e+03
  2.049222e+01    1.645955e+03
  2.054522e+01    1.639701e+03
  2.059823e+01    1.635648e+03
  2.065123e+01    1.630067e+03
  2.070424e+01    1.626766e+03
  2.075724e+01    1.626278e+03
  2.081024e+01    1.631958e+03
  2.086325e+01    1.622306e+03
  2.091625e+01    1.606526e+03
  2.096926e+01    1.593077e+03
  2.102226e+01    1.581710e+03
  2.107526e+01    1.575024e+03
  2.112827e+01    1.562788e+03
  2.118127e+01    1.555624e+03
  2.123428e+01    1.545249e+03
  2.128728e+01    1.537299e+03
  2.134028e+01    1.527161e+03
  2.139329e+01    1.517069e+03
  2.144629e+01    1.508271e+03
  2.149930e+01    1.500115e+03
  2.155230e+01    1.491212e+03
  2.160530e+01    1.484100e+03
  2.165831e+01    1.474672e+03
  2.171131e+01    1.468857e+03
  2.176432e+01    1.463468e+03
  2.181732e+01    1.453220e+03
  2.187033e+01    1.443991e+03
  2.192333e+01    1.438179e+03
  2.197633e+01    1.428815e+03
  2.202934e+01    1.422076e+03
  2.208234e+01    1.411598e+03
  2.213535e+01    1.403379e+03
  2.218835e+01    1.395052e+03
  2.224135e+01    1.386819e+03
  2.229436e+01    1.378681e+03
  2.234736e+01    1.372078e+03
  2.240037e+01    1.361430e+03
  2.245337e+01    1.354470e+03
  2.250637e+01    1.347849e+03
  2.255938e+01    1.340321e+03
  2.261238e+01    1.342860e+03
  2.266539e+01    1.344345e+03
  2.271839e+01    1.346163e+03
  2.277140e+01    1.344258e+03
  2.282440e+01    1.342905e+03
  2.287740e+01    1.340573e+03
  2.293041e+01    1.342339e+03
  2.298341e+01    1.339528e+03
  2.303642e+01    1.339342e+03
  2.308942e+01    1.337159e+03
  2.314242e+01    1.335510e+03
  2.319543e+01    1.331317e+03
  2.324843e+01    1.325879e+03
  2.330144e+01    1.326712e+03
  2.335444e+01    1.323639e+03
  2.340744e+01    1.321625e+03
  2.346045e+01    1.320727e+03
  2.351345e+01    1.318732e+03
  2.356646e+01    1.313849e+03
  2.361946e+01    1.314269e+03
  2.367246e+01    1.312386e+03
  2.372547e+01    1.307237e+03
  2.377847e+01    1.303618e+03
  2.383148e+01    1.299007e+03
  2.388448e+01    1.294078e+03
  2.393749e+01    1.290388e+03
  2.399049e+01    1.289180e+03
  2.404349e+01    1.288180e+03
  2.409650e+01    1.280895e+03
  2.414950e+01    1.278673e+03
  2.420251e+01    1.268380e+03
  2.425551e+01    1.263859e+03
  2.430851e+01    1.258017e+03
  2.436152e+01    1.253330e+03
  2.441452e+01    1.246737e+03
  2.446753e+01    1.243040e+03
  2.452053e+01    1.232645e+03
  2.457353e+01    1.228556e+03
  2.462654e+01    1.226815e+03
  2.467954e+01    1.216427e+03
  2.473255e+01    1.210558e+03
  2.478555e+01    1.201053e+03
  2.483855e+01    1.189310e+03
  2.489156e+01    1.182633e+03
  2.494456e+01    1.173101e+03
  2.499757e+01    1.165232e+03
  2.505057e+01    1.157705e+03
  2.510358e+01    1.150824e+03
  2.515658e+01    1.146857e+03
  2.520958e+01    1.140774e+03
  2.526259e+01    1.134743e+03
  2.531559e+01    1.129060e+03
  2.536860e+01    1.124113e+03
  2.542160e+01    1.121241e+03
  2.547460e+01    1.113088e+03
  2.552761e+01    1.104142e+03
  2.558061e+01    1.102046e+03
  2.563362e+01    1.096643e+03
  2.568662e+01    1.085616e+03
  2.573962e+01    1.085322e+03
  2.579263e+01    1.068881e+03
  2.584563e+01    1.068636e+03
  2.589864e+01    1.062854e+03
  2.595164e+01    1.057906e+03
  2.600465e+01    1.058930e+03
  2.605765e+01    1.055766e+03
  2.611065e+01    1.054800e+03
  2.616366e+01    1.048671e+03
  2.621666e+01    1.043252e+03
  2.626967e+01    1.027609e+03
  2.632267e+01    1.034317e+03
  2.637567e+01    1.022775e+03
  2.642868e+01    1.010141e+03
  2.648168e+01    1.002662e+03
