# == pyFAI calibration ==
# Distance Sample to Detector: 0.2945755399789714 m
# PONI: 2.880e-01, 2.450e-01 m
# Rotations: -0.007291 -0.010887 -0.000000 rad
# 
# == Fit2d calibration ==
# Distance Sample-beamCenter: 294.601 mm
# Center: x=1437.174, y=1655.617 pix
# Tilt: 0.751 deg  TiltPlanRot: -56.193 deg
# 
# Detector Pilatus CdTe 2M	 PixelSize= 1.720e-04, 1.720e-04 m
#    Detector has a mask: True 
#    Detector has a dark current: False 
#    detector has a flat field: False 
# 
# Wavelength: 2.0732883349524408e-11 m
# Mask applied: from detector
# Dark current applied: False
# Flat field applied: False
# Polarization factor: 0.9
# Normalization factor: 1.0
# --> /gpfs/current/raw/FMue_2/FMue_2_20231024_120911_00231.dat
#        q_A^-1             I 
  3.263564e-02             nan
  8.563974e-02             nan
  1.386438e-01             nan
  1.916479e-01             nan
  2.446520e-01    3.828533e+04
  2.976561e-01    2.953600e+04
  3.506602e-01    1.582391e+04
  4.036643e-01    1.110991e+04
  4.566684e-01    9.496158e+03
  5.096725e-01    9.066387e+03
  5.626766e-01    8.743973e+03
  6.156807e-01    8.386433e+03
  6.686848e-01    8.209965e+03
  7.216890e-01    8.259409e+03
  7.746931e-01    8.252154e+03
  8.276972e-01    8.324269e+03
  8.807013e-01    8.387764e+03
  9.337054e-01    8.532711e+03
  9.867095e-01    8.689388e+03
  1.039714e+00    8.936905e+03
  1.092718e+00    9.268134e+03
  1.145722e+00    9.748592e+03
  1.198726e+00    1.033197e+04
  1.251730e+00    1.103426e+04
  1.304734e+00    1.192647e+04
  1.357738e+00    1.279047e+04
  1.410742e+00    1.347320e+04
  1.463746e+00    1.381462e+04
  1.516750e+00    1.376759e+04
  1.569755e+00    1.327924e+04
  1.622759e+00    1.263918e+04
  1.675763e+00    1.177581e+04
  1.728767e+00    1.088298e+04
  1.781771e+00    1.010288e+04
  1.834775e+00    9.435440e+03
  1.887779e+00    8.885758e+03
  1.940783e+00    8.539820e+03
  1.993787e+00    8.236945e+03
  2.046791e+00    8.067495e+03
  2.099796e+00    8.025852e+03
  2.152800e+00    8.031950e+03
  2.205804e+00    8.123992e+03
  2.258808e+00    8.206078e+03
  2.311812e+00    8.251249e+03
  2.364816e+00    8.349514e+03
  2.417820e+00    8.709999e+03
  2.470824e+00    9.465420e+03
  2.523828e+00    1.103296e+04
  2.576832e+00    1.262444e+04
  2.629837e+00    1.056474e+04
  2.682841e+00    8.353191e+03
  2.735845e+00    7.712279e+03
  2.788849e+00    7.102939e+03
  2.841853e+00    6.857419e+03
  2.894857e+00    7.906993e+03
  2.947861e+00    1.117716e+04
  3.000865e+00    1.231516e+04
  3.053869e+00    9.353207e+03
  3.106874e+00    8.211287e+03
  3.159878e+00    8.666879e+03
  3.212882e+00    7.799232e+03
  3.265886e+00    5.980501e+03
  3.318890e+00    5.130373e+03
  3.371894e+00    4.918332e+03
  3.424898e+00    4.862641e+03
  3.477902e+00    4.867106e+03
  3.530906e+00    4.828116e+03
  3.583910e+00    4.753120e+03
  3.636915e+00    4.739557e+03
  3.689919e+00    4.766441e+03
  3.742923e+00    4.837599e+03
  3.795927e+00    4.951806e+03
  3.848931e+00    5.097038e+03
  3.901935e+00    5.289166e+03
  3.954939e+00    5.522177e+03
  4.007943e+00    5.881935e+03
  4.060947e+00    6.398593e+03
  4.113951e+00    7.221415e+03
  4.166956e+00    8.963791e+03
  4.219960e+00    1.061449e+04
  4.272964e+00    8.840658e+03
  4.325968e+00    7.071689e+03
  4.378972e+00    7.368317e+03
  4.431976e+00    9.451339e+03
  4.484980e+00    1.051026e+04
  4.537984e+00    8.364639e+03
  4.590988e+00    6.370241e+03
  4.643992e+00    5.659893e+03
  4.696997e+00    5.480531e+03
  4.750001e+00    5.457023e+03
  4.803005e+00    5.543974e+03
  4.856009e+00    5.844524e+03
  4.909013e+00    6.394104e+03
  4.962017e+00    6.541268e+03
  5.015021e+00    5.992974e+03
  5.068025e+00    5.697470e+03
  5.121029e+00    5.840014e+03
  5.174033e+00    5.829389e+03
  5.227038e+00    5.201558e+03
  5.280042e+00    4.662189e+03
  5.333046e+00    4.376513e+03
  5.386050e+00    4.226093e+03
  5.439054e+00    4.222654e+03
  5.492058e+00    4.176245e+03
  5.545062e+00    3.886024e+03
  5.598066e+00    3.664727e+03
  5.651070e+00    3.578643e+03
  5.704074e+00    3.560162e+03
  5.757079e+00    3.595292e+03
  5.810083e+00    3.673775e+03
  5.863087e+00    3.762585e+03
  5.916091e+00    3.919499e+03
  5.969095e+00    4.057965e+03
  6.022099e+00    4.002013e+03
  6.075103e+00    3.908422e+03
  6.128107e+00    3.832580e+03
  6.181111e+00    3.801552e+03
  6.234115e+00    3.869084e+03
  6.287120e+00    3.993707e+03
  6.340124e+00    4.033878e+03
  6.393128e+00    4.035549e+03
  6.446132e+00    4.041541e+03
  6.499136e+00    4.055875e+03
  6.552140e+00    3.976661e+03
  6.605144e+00    4.010541e+03
  6.658148e+00    4.078207e+03
  6.711152e+00    3.876848e+03
  6.764156e+00    3.614840e+03
  6.817161e+00    3.459404e+03
  6.870165e+00    3.351192e+03
  6.923169e+00    3.290755e+03
  6.976173e+00    3.318418e+03
  7.029177e+00    3.381354e+03
  7.082181e+00    3.422276e+03
  7.135185e+00    3.404810e+03
  7.188189e+00    3.404330e+03
  7.241193e+00    3.493618e+03
  7.294197e+00    3.599708e+03
  7.347202e+00    3.504437e+03
  7.400206e+00    3.349979e+03
  7.453210e+00    3.278023e+03
  7.506214e+00    3.272533e+03
  7.559218e+00    3.279664e+03
  7.612222e+00    3.334444e+03
  7.665226e+00    3.485296e+03
  7.718230e+00    3.701426e+03
  7.771234e+00    3.674261e+03
  7.824239e+00    3.413729e+03
  7.877243e+00    3.218615e+03
  7.930247e+00    3.108996e+03
  7.983251e+00    3.066839e+03
  8.036255e+00    3.055201e+03
  8.089259e+00    3.056841e+03
  8.142263e+00    3.068375e+03
  8.195267e+00    3.072918e+03
  8.248271e+00    3.075502e+03
  8.301275e+00    3.065031e+03
  8.354280e+00    3.070202e+03
  8.407284e+00    3.079427e+03
  8.460288e+00    3.063450e+03
  8.513292e+00    3.027847e+03
  8.566296e+00    3.021867e+03
  8.619300e+00    3.019286e+03
  8.672304e+00    3.022581e+03
  8.725308e+00    3.046754e+03
  8.778312e+00    3.065264e+03
  8.831316e+00    3.069823e+03
  8.884321e+00    3.066542e+03
  8.937325e+00    3.044599e+03
  8.990329e+00    2.969467e+03
  9.043333e+00    2.869293e+03
  9.096337e+00    2.805149e+03
  9.149341e+00    2.769114e+03
  9.202345e+00    2.751907e+03
  9.255349e+00    2.742740e+03
  9.308353e+00    2.739480e+03
  9.361357e+00    2.748179e+03
  9.414362e+00    2.744604e+03
  9.467366e+00    2.736427e+03
  9.520370e+00    2.705762e+03
  9.573374e+00    2.670994e+03
  9.626378e+00    2.657253e+03
  9.679382e+00    2.656392e+03
  9.732386e+00    2.659962e+03
  9.785390e+00    2.657497e+03
  9.838394e+00    2.649417e+03
  9.891398e+00    2.640623e+03
  9.944403e+00    2.622833e+03
  9.997407e+00    2.603118e+03
  1.005041e+01    2.576154e+03
  1.010341e+01    2.537783e+03
  1.015642e+01    2.517370e+03
  1.020942e+01    2.504207e+03
  1.026243e+01    2.499478e+03
  1.031543e+01    2.507781e+03
  1.036844e+01    2.528363e+03
  1.042144e+01    2.527980e+03
  1.047444e+01    2.532899e+03
  1.052745e+01    2.527041e+03
  1.058045e+01    2.527786e+03
  1.063346e+01    2.522718e+03
  1.068646e+01    2.514190e+03
  1.073946e+01    2.496642e+03
  1.079247e+01    2.483736e+03
  1.084547e+01    2.468344e+03
  1.089848e+01    2.466510e+03
  1.095148e+01    2.466838e+03
  1.100448e+01    2.462190e+03
  1.105749e+01    2.463418e+03
  1.111049e+01    2.464153e+03
  1.116350e+01    2.451291e+03
  1.121650e+01    2.437749e+03
  1.126951e+01    2.421932e+03
  1.132251e+01    2.412426e+03
  1.137551e+01    2.400863e+03
  1.142852e+01    2.394327e+03
  1.148152e+01    2.383550e+03
  1.153453e+01    2.370268e+03
  1.158753e+01    2.364301e+03
  1.164053e+01    2.358807e+03
  1.169354e+01    2.363720e+03
  1.174654e+01    2.392196e+03
  1.179955e+01    2.385605e+03
  1.185255e+01    2.380993e+03
  1.190555e+01    2.367684e+03
  1.195856e+01    2.357173e+03
  1.201156e+01    2.348928e+03
  1.206457e+01    2.341601e+03
  1.211757e+01    2.347933e+03
  1.217057e+01    2.349504e+03
  1.222358e+01    2.345957e+03
  1.227658e+01    2.343232e+03
  1.232959e+01    2.340578e+03
  1.238259e+01    2.330138e+03
  1.243560e+01    2.330839e+03
  1.248860e+01    2.328127e+03
  1.254160e+01    2.329815e+03
  1.259461e+01    2.324226e+03
  1.264761e+01    2.319989e+03
  1.270062e+01    2.309491e+03
  1.275362e+01    2.299443e+03
  1.280662e+01    2.290666e+03
  1.285963e+01    2.283343e+03
  1.291263e+01    2.270811e+03
  1.296564e+01    2.260909e+03
  1.301864e+01    2.252676e+03
  1.307164e+01    2.243645e+03
  1.312465e+01    2.233055e+03
  1.317765e+01    2.228247e+03
  1.323066e+01    2.208461e+03
  1.328366e+01    2.202870e+03
  1.333667e+01    2.196393e+03
  1.338967e+01    2.191260e+03
  1.344267e+01    2.202040e+03
  1.349568e+01    2.197955e+03
  1.354868e+01    2.192922e+03
  1.360169e+01    2.180951e+03
  1.365469e+01    2.168105e+03
  1.370769e+01    2.161160e+03
  1.376070e+01    2.149785e+03
  1.381370e+01    2.142418e+03
  1.386671e+01    2.134283e+03
  1.391971e+01    2.126831e+03
  1.397271e+01    2.123548e+03
  1.402572e+01    2.119327e+03
  1.407872e+01    2.111539e+03
  1.413173e+01    2.104898e+03
  1.418473e+01    2.103649e+03
  1.423773e+01    2.098203e+03
  1.429074e+01    2.091281e+03
  1.434374e+01    2.087745e+03
  1.439675e+01    2.080796e+03
  1.444975e+01    2.079443e+03
  1.450276e+01    2.074981e+03
  1.455576e+01    2.068621e+03
  1.460876e+01    2.069010e+03
  1.466177e+01    2.063715e+03
  1.471477e+01    2.063969e+03
  1.476778e+01    2.067856e+03
  1.482078e+01    2.065277e+03
  1.487378e+01    2.060358e+03
  1.492679e+01    2.053786e+03
  1.497979e+01    2.051823e+03
  1.503280e+01    2.048911e+03
  1.508580e+01    2.046812e+03
  1.513880e+01    2.044646e+03
  1.519181e+01    2.049821e+03
  1.524481e+01    2.073708e+03
  1.529782e+01    2.054090e+03
  1.535082e+01    2.044019e+03
  1.540382e+01    2.036094e+03
  1.545683e+01    2.029018e+03
  1.550983e+01    2.032511e+03
  1.556284e+01    2.028696e+03
  1.561584e+01    2.021757e+03
  1.566885e+01    2.017381e+03
  1.572185e+01    2.017030e+03
  1.577485e+01    2.013535e+03
  1.582786e+01    2.009022e+03
  1.588086e+01    2.004713e+03
  1.593387e+01    2.003567e+03
  1.598687e+01    2.001387e+03
  1.603987e+01    1.990591e+03
  1.609288e+01    1.984787e+03
  1.614588e+01    1.977884e+03
  1.619889e+01    1.978993e+03
  1.625189e+01    1.983446e+03
  1.630489e+01    1.981885e+03
  1.635790e+01    1.976587e+03
  1.641090e+01    1.973293e+03
  1.646391e+01    1.966220e+03
  1.651691e+01    1.963614e+03
  1.656992e+01    1.959207e+03
  1.662292e+01    1.955816e+03
  1.667592e+01    1.954554e+03
  1.672893e+01    1.951419e+03
  1.678193e+01    1.953317e+03
  1.683494e+01    1.945861e+03
  1.688794e+01    1.946091e+03
  1.694094e+01    1.945128e+03
  1.699395e+01    1.939247e+03
  1.704695e+01    1.935314e+03
  1.709996e+01    1.932273e+03
  1.715296e+01    1.928358e+03
  1.720596e+01    1.925040e+03
  1.725897e+01    1.919956e+03
  1.731197e+01    1.917289e+03
  1.736498e+01    1.912696e+03
  1.741798e+01    1.910060e+03
  1.747098e+01    1.908804e+03
  1.752399e+01    1.906846e+03
  1.757699e+01    1.901324e+03
  1.763000e+01    1.897260e+03
  1.768300e+01    1.893467e+03
  1.773601e+01    1.889663e+03
  1.778901e+01    1.884060e+03
  1.784201e+01    1.876007e+03
  1.789502e+01    1.876182e+03
  1.794802e+01    1.871183e+03
  1.800103e+01    1.868212e+03
  1.805403e+01    1.864519e+03
  1.810703e+01    1.859658e+03
  1.816004e+01    1.856118e+03
  1.821304e+01    1.852372e+03
  1.826605e+01    1.856049e+03
  1.831905e+01    1.847449e+03
  1.837205e+01    1.844647e+03
  1.842506e+01    1.843061e+03
  1.847806e+01    1.838650e+03
  1.853107e+01    1.838130e+03
  1.858407e+01    1.834721e+03
  1.863708e+01    1.836357e+03
  1.869008e+01    1.852072e+03
  1.874308e+01    1.841010e+03
  1.879609e+01    1.833768e+03
  1.884909e+01    1.829076e+03
  1.890210e+01    1.827442e+03
  1.895510e+01    1.819221e+03
  1.900810e+01    1.817055e+03
  1.906111e+01    1.810544e+03
  1.911411e+01    1.804307e+03
  1.916712e+01    1.800770e+03
  1.922012e+01    1.796749e+03
  1.927312e+01    1.789645e+03
  1.932613e+01    1.786488e+03
  1.937913e+01    1.780640e+03
  1.943214e+01    1.776397e+03
  1.948514e+01    1.772333e+03
  1.953814e+01    1.765605e+03
  1.959115e+01    1.762280e+03
  1.964415e+01    1.756169e+03
  1.969716e+01    1.753536e+03
  1.975016e+01    1.748595e+03
  1.980317e+01    1.742951e+03
  1.985617e+01    1.739761e+03
  1.990917e+01    1.732334e+03
  1.996218e+01    1.727909e+03
  2.001518e+01    1.724379e+03
  2.006819e+01    1.717264e+03
  2.012119e+01    1.710504e+03
  2.017419e+01    1.707254e+03
  2.022720e+01    1.700821e+03
  2.028020e+01    1.694140e+03
  2.033321e+01    1.688113e+03
  2.038621e+01    1.680713e+03
  2.043921e+01    1.677539e+03
  2.049222e+01    1.672419e+03
  2.054522e+01    1.667211e+03
  2.059823e+01    1.662794e+03
  2.065123e+01    1.657256e+03
  2.070424e+01    1.653571e+03
  2.075724e+01    1.653730e+03
  2.081024e+01    1.659470e+03
  2.086325e+01    1.650521e+03
  2.091625e+01    1.634303e+03
  2.096926e+01    1.619084e+03
  2.102226e+01    1.609973e+03
  2.107526e+01    1.600261e+03
  2.112827e+01    1.587573e+03
  2.118127e+01    1.581886e+03
  2.123428e+01    1.571730e+03
  2.128728e+01    1.561065e+03
  2.134028e+01    1.554403e+03
  2.139329e+01    1.543325e+03
  2.144629e+01    1.534132e+03
  2.149930e+01    1.525437e+03
  2.155230e+01    1.517310e+03
  2.160530e+01    1.508780e+03
  2.165831e+01    1.499533e+03
  2.171131e+01    1.493580e+03
  2.176432e+01    1.488092e+03
  2.181732e+01    1.478057e+03
  2.187033e+01    1.468516e+03
  2.192333e+01    1.462213e+03
  2.197633e+01    1.453224e+03
  2.202934e+01    1.445432e+03
  2.208234e+01    1.434349e+03
  2.213535e+01    1.428188e+03
  2.218835e+01    1.418510e+03
  2.224135e+01    1.410069e+03
  2.229436e+01    1.401539e+03
  2.234736e+01    1.395164e+03
  2.240037e+01    1.384430e+03
  2.245337e+01    1.377380e+03
  2.250637e+01    1.371098e+03
  2.255938e+01    1.362181e+03
  2.261238e+01    1.366162e+03
  2.266539e+01    1.366605e+03
  2.271839e+01    1.366808e+03
  2.277140e+01    1.365965e+03
  2.282440e+01    1.365370e+03
  2.287740e+01    1.363880e+03
  2.293041e+01    1.363161e+03
  2.298341e+01    1.362684e+03
  2.303642e+01    1.362743e+03
  2.308942e+01    1.359353e+03
  2.314242e+01    1.356695e+03
  2.319543e+01    1.353818e+03
  2.324843e+01    1.348119e+03
  2.330144e+01    1.347444e+03
  2.335444e+01    1.343659e+03
  2.340744e+01    1.343304e+03
  2.346045e+01    1.342598e+03
  2.351345e+01    1.339090e+03
  2.356646e+01    1.334582e+03
  2.361946e+01    1.332864e+03
  2.367246e+01    1.335370e+03
  2.372547e+01    1.328935e+03
  2.377847e+01    1.323989e+03
  2.383148e+01    1.318384e+03
  2.388448e+01    1.314436e+03
  2.393749e+01    1.312714e+03
  2.399049e+01    1.310984e+03
  2.404349e+01    1.308613e+03
  2.409650e+01    1.302138e+03
  2.414950e+01    1.297692e+03
  2.420251e+01    1.293847e+03
  2.425551e+01    1.284780e+03
  2.430851e+01    1.279125e+03
  2.436152e+01    1.275273e+03
  2.441452e+01    1.266211e+03
  2.446753e+01    1.263123e+03
  2.452053e+01    1.252928e+03
  2.457353e+01    1.251470e+03
  2.462654e+01    1.246789e+03
  2.467954e+01    1.238483e+03
  2.473255e+01    1.228685e+03
  2.478555e+01    1.218569e+03
  2.483855e+01    1.208898e+03
  2.489156e+01    1.201324e+03
  2.494456e+01    1.193413e+03
  2.499757e+01    1.184206e+03
  2.505057e+01    1.175189e+03
  2.510358e+01    1.168809e+03
  2.515658e+01    1.164141e+03
  2.520958e+01    1.158493e+03
  2.526259e+01    1.152161e+03
  2.531559e+01    1.146862e+03
  2.536860e+01    1.141403e+03
  2.542160e+01    1.136412e+03
  2.547460e+01    1.128530e+03
  2.552761e+01    1.119538e+03
  2.558061e+01    1.122109e+03
  2.563362e+01    1.114936e+03
  2.568662e+01    1.102057e+03
  2.573962e+01    1.096378e+03
  2.579263e+01    1.091670e+03
  2.584563e+01    1.080138e+03
  2.589864e+01    1.077466e+03
  2.595164e+01    1.079388e+03
  2.600465e+01    1.075826e+03
  2.605765e+01    1.070830e+03
  2.611065e+01    1.070934e+03
  2.616366e+01    1.065761e+03
  2.621666e+01    1.059144e+03
  2.626967e+01    1.051471e+03
  2.632267e+01    1.041496e+03
  2.637567e+01    1.043196e+03
  2.642868e+01    1.013644e+03
  2.648168e+01    9.925751e+02
