# == pyFAI calibration ==
# Distance Sample to Detector: 0.2945755399789714 m
# PONI: 2.880e-01, 2.450e-01 m
# Rotations: -0.007291 -0.010887 -0.000000 rad
# 
# == Fit2d calibration ==
# Distance Sample-beamCenter: 294.601 mm
# Center: x=1437.174, y=1655.617 pix
# Tilt: 0.751 deg  TiltPlanRot: -56.193 deg
# 
# Detector Pilatus CdTe 2M	 PixelSize= 1.720e-04, 1.720e-04 m
#    Detector has a mask: True 
#    Detector has a dark current: False 
#    detector has a flat field: False 
# 
# Wavelength: 2.0732883349524408e-11 m
# Mask applied: from detector
# Dark current applied: False
# Flat field applied: False
# Polarization factor: 0.9
# Normalization factor: 1.0
# --> /gpfs/current/raw/FMue_2/FMue_2_20231024_120911_00037.dat
#        q_A^-1             I 
  3.263564e-02             nan
  8.563974e-02             nan
  1.386438e-01             nan
  1.916479e-01             nan
  2.446520e-01    3.570655e+04
  2.976561e-01    2.782662e+04
  3.506602e-01    1.493217e+04
  4.036643e-01    1.050478e+04
  4.566684e-01    9.014562e+03
  5.096725e-01    8.654784e+03
  5.626766e-01    8.475364e+03
  6.156807e-01    8.245087e+03
  6.686848e-01    8.157832e+03
  7.216890e-01    8.255424e+03
  7.746931e-01    8.282661e+03
  8.276972e-01    8.373392e+03
  8.807013e-01    8.443715e+03
  9.337054e-01    8.591480e+03
  9.867095e-01    8.744846e+03
  1.039714e+00    8.998941e+03
  1.092718e+00    9.332299e+03
  1.145722e+00    9.810791e+03
  1.198726e+00    1.042453e+04
  1.251730e+00    1.127220e+04
  1.304734e+00    1.261616e+04
  1.357738e+00    1.367771e+04
  1.410742e+00    1.390952e+04
  1.463746e+00    1.394485e+04
  1.516750e+00    1.380356e+04
  1.569755e+00    1.328017e+04
  1.622759e+00    1.260364e+04
  1.675763e+00    1.173834e+04
  1.728767e+00    1.084838e+04
  1.781771e+00    1.002405e+04
  1.834775e+00    9.350575e+03
  1.887779e+00    8.771341e+03
  1.940783e+00    8.399327e+03
  1.993787e+00    8.104339e+03
  2.046791e+00    8.038700e+03
  2.099796e+00    8.536956e+03
  2.152800e+00    1.018160e+04
  2.205804e+00    1.092815e+04
  2.258808e+00    9.227545e+03
  2.311812e+00    8.013891e+03
  2.364816e+00    7.670410e+03
  2.417820e+00    7.955324e+03
  2.470824e+00    9.549492e+03
  2.523828e+00    1.488374e+04
  2.576832e+00    1.896682e+04
  2.629837e+00    1.382826e+04
  2.682841e+00    9.366393e+03
  2.735845e+00    7.613011e+03
  2.788849e+00    6.413089e+03
  2.841853e+00    5.563065e+03
  2.894857e+00    5.189518e+03
  2.947861e+00    5.102454e+03
  3.000865e+00    5.417721e+03
  3.053869e+00    6.883788e+03
  3.106874e+00    9.201190e+03
  3.159878e+00    9.510048e+03
  3.212882e+00    8.007717e+03
  3.265886e+00    5.898210e+03
  3.318890e+00    4.843553e+03
  3.371894e+00    4.589778e+03
  3.424898e+00    4.500663e+03
  3.477902e+00    4.477743e+03
  3.530906e+00    4.468198e+03
  3.583910e+00    4.477629e+03
  3.636915e+00    4.554555e+03
  3.689919e+00    4.774776e+03
  3.742923e+00    5.323760e+03
  3.795927e+00    5.921383e+03
  3.848931e+00    5.758374e+03
  3.901935e+00    5.751270e+03
  3.954939e+00    6.882276e+03
  4.007943e+00    8.977765e+03
  4.060947e+00    9.036602e+03
  4.113951e+00    7.346316e+03
  4.166956e+00    6.372993e+03
  4.219960e+00    6.049060e+03
  4.272964e+00    6.335134e+03
  4.325968e+00    8.291019e+03
  4.378972e+00    1.231098e+04
  4.431976e+00    1.320996e+04
  4.484980e+00    1.189431e+04
  4.537984e+00    9.107410e+03
  4.590988e+00    6.502040e+03
  4.643992e+00    5.394209e+03
  4.696997e+00    5.029941e+03
  4.750001e+00    4.893343e+03
  4.803005e+00    4.891855e+03
  4.856009e+00    5.060578e+03
  4.909013e+00    5.224371e+03
  4.962017e+00    5.247400e+03
  5.015021e+00    5.532896e+03
  5.068025e+00    6.162722e+03
  5.121029e+00    6.225710e+03
  5.174033e+00    5.531078e+03
  5.227038e+00    4.841815e+03
  5.280042e+00    4.480121e+03
  5.333046e+00    4.409021e+03
  5.386050e+00    4.408936e+03
  5.439054e+00    4.244978e+03
  5.492058e+00    4.184357e+03
  5.545062e+00    3.908296e+03
  5.598066e+00    3.604680e+03
  5.651070e+00    3.487355e+03
  5.704074e+00    3.538393e+03
  5.757079e+00    3.771679e+03
  5.810083e+00    4.002854e+03
  5.863087e+00    4.148656e+03
  5.916091e+00    4.672430e+03
  5.969095e+00    4.970365e+03
  6.022099e+00    4.430294e+03
  6.075103e+00    3.972616e+03
  6.128107e+00    3.892704e+03
  6.181111e+00    4.043720e+03
  6.234115e+00    4.057328e+03
  6.287120e+00    3.896089e+03
  6.340124e+00    3.752211e+03
  6.393128e+00    3.617880e+03
  6.446132e+00    3.466231e+03
  6.499136e+00    3.420768e+03
  6.552140e+00    3.508257e+03
  6.605144e+00    3.633675e+03
  6.658148e+00    3.870622e+03
  6.711152e+00    4.184143e+03
  6.764156e+00    4.058731e+03
  6.817161e+00    3.639513e+03
  6.870165e+00    3.405801e+03
  6.923169e+00    3.385214e+03
  6.976173e+00    3.368666e+03
  7.029177e+00    3.304005e+03
  7.082181e+00    3.282147e+03
  7.135185e+00    3.204909e+03
  7.188189e+00    3.118753e+03
  7.241193e+00    3.106424e+03
  7.294197e+00    3.196726e+03
  7.347202e+00    3.389738e+03
  7.400206e+00    3.537262e+03
  7.453210e+00    3.470318e+03
  7.506214e+00    3.489715e+03
  7.559218e+00    3.813159e+03
  7.612222e+00    4.021221e+03
  7.665226e+00    3.783478e+03
  7.718230e+00    3.698677e+03
  7.771234e+00    3.703720e+03
  7.824239e+00    3.534219e+03
  7.877243e+00    3.412085e+03
  7.930247e+00    3.402611e+03
  7.983251e+00    3.517526e+03
  8.036255e+00    3.559661e+03
  8.089259e+00    3.362737e+03
  8.142263e+00    3.150232e+03
  8.195267e+00    3.041247e+03
  8.248271e+00    2.995880e+03
  8.301275e+00    2.956310e+03
  8.354280e+00    2.921185e+03
  8.407284e+00    2.903347e+03
  8.460288e+00    2.917217e+03
  8.513292e+00    2.933586e+03
  8.566296e+00    2.966970e+03
  8.619300e+00    2.953060e+03
  8.672304e+00    2.918136e+03
  8.725308e+00    2.949968e+03
  8.778312e+00    2.981720e+03
  8.831316e+00    2.931132e+03
  8.884321e+00    2.881238e+03
  8.937325e+00    2.875979e+03
  8.990329e+00    2.885606e+03
  9.043333e+00    2.890635e+03
  9.096337e+00    2.926624e+03
  9.149341e+00    2.952786e+03
  9.202345e+00    2.877421e+03
  9.255349e+00    2.775270e+03
  9.308353e+00    2.717288e+03
  9.361357e+00    2.672128e+03
  9.414362e+00    2.634551e+03
  9.467366e+00    2.659474e+03
  9.520370e+00    2.708541e+03
  9.573374e+00    2.752938e+03
  9.626378e+00    2.798656e+03
  9.679382e+00    2.794183e+03
  9.732386e+00    2.759716e+03
  9.785390e+00    2.760613e+03
  9.838394e+00    2.736554e+03
  9.891398e+00    2.678642e+03
  9.944403e+00    2.647342e+03
  9.997407e+00    2.657617e+03
  1.005041e+01    2.688217e+03
  1.010341e+01    2.711039e+03
  1.015642e+01    2.697133e+03
  1.020942e+01    2.614668e+03
  1.026243e+01    2.529592e+03
  1.031543e+01    2.496405e+03
  1.036844e+01    2.494397e+03
  1.042144e+01    2.483222e+03
  1.047444e+01    2.497890e+03
  1.052745e+01    2.513833e+03
  1.058045e+01    2.528186e+03
  1.063346e+01    2.510049e+03
  1.068646e+01    2.486698e+03
  1.073946e+01    2.468542e+03
  1.079247e+01    2.456591e+03
  1.084547e+01    2.439123e+03
  1.089848e+01    2.454558e+03
  1.095148e+01    2.493902e+03
  1.100448e+01    2.535632e+03
  1.105749e+01    2.538838e+03
  1.111049e+01    2.493661e+03
  1.116350e+01    2.440073e+03
  1.121650e+01    2.412112e+03
  1.126951e+01    2.396959e+03
  1.132251e+01    2.401920e+03
  1.137551e+01    2.422587e+03
  1.142852e+01    2.456121e+03
  1.148152e+01    2.479500e+03
  1.153453e+01    2.496928e+03
  1.158753e+01    2.513620e+03
  1.164053e+01    2.486481e+03
  1.169354e+01    2.439247e+03
  1.174654e+01    2.432090e+03
  1.179955e+01    2.426701e+03
  1.185255e+01    2.433388e+03
  1.190555e+01    2.418504e+03
  1.195856e+01    2.380938e+03
  1.201156e+01    2.340852e+03
  1.206457e+01    2.321345e+03
  1.211757e+01    2.326296e+03
  1.217057e+01    2.345600e+03
  1.222358e+01    2.369544e+03
  1.227658e+01    2.381205e+03
  1.232959e+01    2.365484e+03
  1.238259e+01    2.332626e+03
  1.243560e+01    2.313587e+03
  1.248860e+01    2.304842e+03
  1.254160e+01    2.310172e+03
  1.259461e+01    2.315723e+03
  1.264761e+01    2.313381e+03
  1.270062e+01    2.298976e+03
  1.275362e+01    2.282921e+03
  1.280662e+01    2.269106e+03
  1.285963e+01    2.259640e+03
  1.291263e+01    2.251128e+03
  1.296564e+01    2.253019e+03
  1.301864e+01    2.258699e+03
  1.307164e+01    2.263748e+03
  1.312465e+01    2.264209e+03
  1.317765e+01    2.262602e+03
  1.323066e+01    2.244757e+03
  1.328366e+01    2.249826e+03
  1.333667e+01    2.266340e+03
  1.338967e+01    2.278572e+03
  1.344267e+01    2.279225e+03
  1.349568e+01    2.246047e+03
  1.354868e+01    2.219987e+03
  1.360169e+01    2.204893e+03
  1.365469e+01    2.202936e+03
  1.370769e+01    2.207770e+03
  1.376070e+01    2.200163e+03
  1.381370e+01    2.187523e+03
  1.386671e+01    2.173115e+03
  1.391971e+01    2.158430e+03
  1.397271e+01    2.152116e+03
  1.402572e+01    2.155782e+03
  1.407872e+01    2.155716e+03
  1.413173e+01    2.146996e+03
  1.418473e+01    2.136596e+03
  1.423773e+01    2.122708e+03
  1.429074e+01    2.112515e+03
  1.434374e+01    2.113881e+03
  1.439675e+01    2.109771e+03
  1.444975e+01    2.108780e+03
  1.450276e+01    2.101342e+03
  1.455576e+01    2.089821e+03
  1.460876e+01    2.085366e+03
  1.466177e+01    2.080198e+03
  1.471477e+01    2.082921e+03
  1.476778e+01    2.084083e+03
  1.482078e+01    2.077307e+03
  1.487378e+01    2.064378e+03
  1.492679e+01    2.056389e+03
  1.497979e+01    2.052990e+03
  1.503280e+01    2.055480e+03
  1.508580e+01    2.056551e+03
  1.513880e+01    2.052484e+03
  1.519181e+01    2.062060e+03
  1.524481e+01    2.087567e+03
  1.529782e+01    2.074454e+03
  1.535082e+01    2.074475e+03
  1.540382e+01    2.071458e+03
  1.545683e+01    2.060259e+03
  1.550983e+01    2.056976e+03
  1.556284e+01    2.048799e+03
  1.561584e+01    2.044479e+03
  1.566885e+01    2.046467e+03
  1.572185e+01    2.049166e+03
  1.577485e+01    2.049020e+03
  1.582786e+01    2.043098e+03
  1.588086e+01    2.035256e+03
  1.593387e+01    2.028821e+03
  1.598687e+01    2.023592e+03
  1.603987e+01    2.011419e+03
  1.609288e+01    2.002189e+03
  1.614588e+01    1.992118e+03
  1.619889e+01    1.995431e+03
  1.625189e+01    1.998349e+03
  1.630489e+01    1.996208e+03
  1.635790e+01    1.990476e+03
  1.641090e+01    1.987632e+03
  1.646391e+01    1.985117e+03
  1.651691e+01    1.989466e+03
  1.656992e+01    1.989478e+03
  1.662292e+01    1.985325e+03
  1.667592e+01    1.982588e+03
  1.672893e+01    1.977379e+03
  1.678193e+01    1.974542e+03
  1.683494e+01    1.972965e+03
  1.688794e+01    1.973424e+03
  1.694094e+01    1.972173e+03
  1.699395e+01    1.968691e+03
  1.704695e+01    1.967782e+03
  1.709996e+01    1.965818e+03
  1.715296e+01    1.962951e+03
  1.720596e+01    1.957166e+03
  1.725897e+01    1.949145e+03
  1.731197e+01    1.943856e+03
  1.736498e+01    1.936204e+03
  1.741798e+01    1.935304e+03
  1.747098e+01    1.934119e+03
  1.752399e+01    1.931754e+03
  1.757699e+01    1.929007e+03
  1.763000e+01    1.927333e+03
  1.768300e+01    1.926243e+03
  1.773601e+01    1.923994e+03
  1.778901e+01    1.918029e+03
  1.784201e+01    1.912170e+03
  1.789502e+01    1.910969e+03
  1.794802e+01    1.905931e+03
  1.800103e+01    1.905233e+03
  1.805403e+01    1.900568e+03
  1.810703e+01    1.892146e+03
  1.816004e+01    1.887723e+03
  1.821304e+01    1.884216e+03
  1.826605e+01    1.886252e+03
  1.831905e+01    1.876976e+03
  1.837205e+01    1.871749e+03
  1.842506e+01    1.869844e+03
  1.847806e+01    1.867390e+03
  1.853107e+01    1.866252e+03
  1.858407e+01    1.865007e+03
  1.863708e+01    1.864867e+03
  1.869008e+01    1.881997e+03
  1.874308e+01    1.871802e+03
  1.879609e+01    1.866352e+03
  1.884909e+01    1.862069e+03
  1.890210e+01    1.858974e+03
  1.895510e+01    1.852773e+03
  1.900810e+01    1.853582e+03
  1.906111e+01    1.847528e+03
  1.911411e+01    1.842771e+03
  1.916712e+01    1.838452e+03
  1.922012e+01    1.836553e+03
  1.927312e+01    1.831235e+03
  1.932613e+01    1.827847e+03
  1.937913e+01    1.822199e+03
  1.943214e+01    1.816936e+03
  1.948514e+01    1.814476e+03
  1.953814e+01    1.808975e+03
  1.959115e+01    1.806361e+03
  1.964415e+01    1.800925e+03
  1.969716e+01    1.798695e+03
  1.975016e+01    1.794752e+03
  1.980317e+01    1.791157e+03
  1.985617e+01    1.786204e+03
  1.990917e+01    1.780970e+03
  1.996218e+01    1.777080e+03
  2.001518e+01    1.775061e+03
  2.006819e+01    1.768510e+03
  2.012119e+01    1.763624e+03
  2.017419e+01    1.759136e+03
  2.022720e+01    1.754227e+03
  2.028020e+01    1.746517e+03
  2.033321e+01    1.740458e+03
  2.038621e+01    1.734846e+03
  2.043921e+01    1.729322e+03
  2.049222e+01    1.726551e+03
  2.054522e+01    1.720756e+03
  2.059823e+01    1.715793e+03
  2.065123e+01    1.711087e+03
  2.070424e+01    1.706354e+03
  2.075724e+01    1.704524e+03
  2.081024e+01    1.712346e+03
  2.086325e+01    1.703642e+03
  2.091625e+01    1.688899e+03
  2.096926e+01    1.674186e+03
  2.102226e+01    1.664669e+03
  2.107526e+01    1.654733e+03
  2.112827e+01    1.644400e+03
  2.118127e+01    1.636110e+03
  2.123428e+01    1.624588e+03
  2.128728e+01    1.616292e+03
  2.134028e+01    1.606168e+03
  2.139329e+01    1.595121e+03
  2.144629e+01    1.588375e+03
  2.149930e+01    1.580037e+03
  2.155230e+01    1.571446e+03
  2.160530e+01    1.564075e+03
  2.165831e+01    1.553982e+03
  2.171131e+01    1.546670e+03
  2.176432e+01    1.542107e+03
  2.181732e+01    1.534013e+03
  2.187033e+01    1.522821e+03
  2.192333e+01    1.516724e+03
  2.197633e+01    1.508254e+03
  2.202934e+01    1.499184e+03
  2.208234e+01    1.488902e+03
  2.213535e+01    1.479870e+03
  2.218835e+01    1.471211e+03
  2.224135e+01    1.461187e+03
  2.229436e+01    1.455120e+03
  2.234736e+01    1.447302e+03
  2.240037e+01    1.437056e+03
  2.245337e+01    1.429623e+03
  2.250637e+01    1.423200e+03
  2.255938e+01    1.416122e+03
  2.261238e+01    1.415830e+03
  2.266539e+01    1.416973e+03
  2.271839e+01    1.417871e+03
  2.277140e+01    1.416747e+03
  2.282440e+01    1.416826e+03
  2.287740e+01    1.411944e+03
  2.293041e+01    1.413094e+03
  2.298341e+01    1.412774e+03
  2.303642e+01    1.410567e+03
  2.308942e+01    1.408356e+03
  2.314242e+01    1.405473e+03
  2.319543e+01    1.401190e+03
  2.324843e+01    1.397865e+03
  2.330144e+01    1.393452e+03
  2.335444e+01    1.391469e+03
  2.340744e+01    1.390869e+03
  2.346045e+01    1.390698e+03
  2.351345e+01    1.389603e+03
  2.356646e+01    1.382888e+03
  2.361946e+01    1.384324e+03
  2.367246e+01    1.382044e+03
  2.372547e+01    1.377106e+03
  2.377847e+01    1.374510e+03
  2.383148e+01    1.369226e+03
  2.388448e+01    1.367239e+03
  2.393749e+01    1.363118e+03
  2.399049e+01    1.362407e+03
  2.404349e+01    1.362748e+03
  2.409650e+01    1.358646e+03
  2.414950e+01    1.353467e+03
  2.420251e+01    1.348412e+03
  2.425551e+01    1.343025e+03
  2.430851e+01    1.339177e+03
  2.436152e+01    1.334337e+03
  2.441452e+01    1.329411e+03
  2.446753e+01    1.323828e+03
  2.452053e+01    1.319476e+03
  2.457353e+01    1.314424e+03
  2.462654e+01    1.310726e+03
  2.467954e+01    1.303871e+03
  2.473255e+01    1.292681e+03
  2.478555e+01    1.283526e+03
  2.483855e+01    1.272764e+03
  2.489156e+01    1.265967e+03
  2.494456e+01    1.254759e+03
  2.499757e+01    1.246997e+03
  2.505057e+01    1.234534e+03
  2.510358e+01    1.228408e+03
  2.515658e+01    1.224954e+03
  2.520958e+01    1.217206e+03
  2.526259e+01    1.205536e+03
  2.531559e+01    1.202578e+03
  2.536860e+01    1.193876e+03
  2.542160e+01    1.188642e+03
  2.547460e+01    1.177551e+03
  2.552761e+01    1.168187e+03
  2.558061e+01    1.167854e+03
  2.563362e+01    1.161978e+03
  2.568662e+01    1.149433e+03
  2.573962e+01    1.145301e+03
  2.579263e+01    1.138215e+03
  2.584563e+01    1.124554e+03
  2.589864e+01    1.122965e+03
  2.595164e+01    1.119312e+03
  2.600465e+01    1.118326e+03
  2.605765e+01    1.111953e+03
  2.611065e+01    1.109785e+03
  2.616366e+01    1.112743e+03
  2.621666e+01    1.099289e+03
  2.626967e+01    1.085804e+03
  2.632267e+01    1.093592e+03
  2.637567e+01    1.085587e+03
  2.642868e+01    1.064253e+03
  2.648168e+01    1.062091e+03
