# == pyFAI calibration ==
# Distance Sample to Detector: 0.2945755399789714 m
# PONI: 2.880e-01, 2.450e-01 m
# Rotations: -0.007291 -0.010887 -0.000000 rad
# 
# == Fit2d calibration ==
# Distance Sample-beamCenter: 294.601 mm
# Center: x=1437.174, y=1655.617 pix
# Tilt: 0.751 deg  TiltPlanRot: -56.193 deg
# 
# Detector Pilatus CdTe 2M	 PixelSize= 1.720e-04, 1.720e-04 m
#    Detector has a mask: True 
#    Detector has a dark current: False 
#    detector has a flat field: False 
# 
# Wavelength: 2.0732883349524408e-11 m
# Mask applied: from detector
# Dark current applied: False
# Flat field applied: False
# Polarization factor: 0.9
# Normalization factor: 1.0
# --> /gpfs/current/raw/FMue_2/FMue_2_20231024_120911_00344.dat
#        q_A^-1             I 
  3.263564e-02             nan
  8.563974e-02             nan
  1.386438e-01             nan
  1.916479e-01             nan
  2.446520e-01    3.818695e+04
  2.976561e-01    2.953905e+04
  3.506602e-01    1.583331e+04
  4.036643e-01    1.107671e+04
  4.566684e-01    9.436769e+03
  5.096725e-01    8.982139e+03
  5.626766e-01    8.661274e+03
  6.156807e-01    8.311724e+03
  6.686848e-01    8.147854e+03
  7.216890e-01    8.200501e+03
  7.746931e-01    8.206344e+03
  8.276972e-01    8.282632e+03
  8.807013e-01    8.341878e+03
  9.337054e-01    8.480159e+03
  9.867095e-01    8.640168e+03
  1.039714e+00    8.895666e+03
  1.092718e+00    9.220804e+03
  1.145722e+00    9.702258e+03
  1.198726e+00    1.028888e+04
  1.251730e+00    1.099378e+04
  1.304734e+00    1.188134e+04
  1.357738e+00    1.274434e+04
  1.410742e+00    1.343116e+04
  1.463746e+00    1.376524e+04
  1.516750e+00    1.371830e+04
  1.569755e+00    1.321903e+04
  1.622759e+00    1.256291e+04
  1.675763e+00    1.170766e+04
  1.728767e+00    1.081774e+04
  1.781771e+00    1.000747e+04
  1.834775e+00    9.337973e+03
  1.887779e+00    8.766388e+03
  1.940783e+00    8.397323e+03
  1.993787e+00    8.076379e+03
  2.046791e+00    7.890632e+03
  2.099796e+00    7.812359e+03
  2.152800e+00    7.809978e+03
  2.205804e+00    7.849011e+03
  2.258808e+00    7.850874e+03
  2.311812e+00    7.798290e+03
  2.364816e+00    7.809636e+03
  2.417820e+00    8.055187e+03
  2.470824e+00    8.641277e+03
  2.523828e+00    9.598103e+03
  2.576832e+00    1.028711e+04
  2.629837e+00    9.339540e+03
  2.682841e+00    8.012423e+03
  2.735845e+00    7.472007e+03
  2.788849e+00    6.854550e+03
  2.841853e+00    6.561695e+03
  2.894857e+00    7.101670e+03
  2.947861e+00    8.873935e+03
  3.000865e+00    1.177397e+04
  3.053869e+00    1.325877e+04
  3.106874e+00    1.135948e+04
  3.159878e+00    9.915624e+03
  3.212882e+00    8.472218e+03
  3.265886e+00    6.492798e+03
  3.318890e+00    5.622481e+03
  3.371894e+00    5.500986e+03
  3.424898e+00    5.767501e+03
  3.477902e+00    6.377486e+03
  3.530906e+00    6.372981e+03
  3.583910e+00    5.585989e+03
  3.636915e+00    5.048128e+03
  3.689919e+00    4.886262e+03
  3.742923e+00    4.879947e+03
  3.795927e+00    4.950512e+03
  3.848931e+00    5.049926e+03
  3.901935e+00    5.212307e+03
  3.954939e+00    5.433608e+03
  4.007943e+00    5.741421e+03
  4.060947e+00    6.111999e+03
  4.113951e+00    6.537312e+03
  4.166956e+00    7.159483e+03
  4.219960e+00    7.846785e+03
  4.272964e+00    7.478050e+03
  4.325968e+00    6.881671e+03
  4.378972e+00    7.395063e+03
  4.431976e+00    9.468489e+03
  4.484980e+00    1.049199e+04
  4.537984e+00    8.295008e+03
  4.590988e+00    6.251338e+03
  4.643992e+00    5.519348e+03
  4.696997e+00    5.324958e+03
  4.750001e+00    5.278718e+03
  4.803005e+00    5.337061e+03
  4.856009e+00    5.549046e+03
  4.909013e+00    6.070941e+03
  4.962017e+00    6.728875e+03
  5.015021e+00    6.549104e+03
  5.068025e+00    5.872894e+03
  5.121029e+00    5.567458e+03
  5.174033e+00    5.389021e+03
  5.227038e+00    5.035909e+03
  5.280042e+00    4.680356e+03
  5.333046e+00    4.430579e+03
  5.386050e+00    4.291108e+03
  5.439054e+00    4.291627e+03
  5.492058e+00    4.255149e+03
  5.545062e+00    3.972336e+03
  5.598066e+00    3.768630e+03
  5.651070e+00    3.719483e+03
  5.704074e+00    3.793740e+03
  5.757079e+00    4.087449e+03
  5.810083e+00    4.625279e+03
  5.863087e+00    4.700432e+03
  5.916091e+00    4.291701e+03
  5.969095e+00    4.119190e+03
  6.022099e+00    4.125819e+03
  6.075103e+00    4.194537e+03
  6.128107e+00    4.086189e+03
  6.181111e+00    3.869164e+03
  6.234115e+00    3.832295e+03
  6.287120e+00    3.900398e+03
  6.340124e+00    3.885973e+03
  6.393128e+00    3.816280e+03
  6.446132e+00    3.722349e+03
  6.499136e+00    3.678778e+03
  6.552140e+00    3.637866e+03
  6.605144e+00    3.632899e+03
  6.658148e+00    3.643529e+03
  6.711152e+00    3.570753e+03
  6.764156e+00    3.471077e+03
  6.817161e+00    3.379800e+03
  6.870165e+00    3.296788e+03
  6.923169e+00    3.244571e+03
  6.976173e+00    3.290281e+03
  7.029177e+00    3.363002e+03
  7.082181e+00    3.384230e+03
  7.135185e+00    3.320402e+03
  7.188189e+00    3.259805e+03
  7.241193e+00    3.259023e+03
  7.294197e+00    3.295410e+03
  7.347202e+00    3.294064e+03
  7.400206e+00    3.268832e+03
  7.453210e+00    3.260532e+03
  7.506214e+00    3.286645e+03
  7.559218e+00    3.336633e+03
  7.612222e+00    3.464821e+03
  7.665226e+00    3.686340e+03
  7.718230e+00    3.862005e+03
  7.771234e+00    3.811476e+03
  7.824239e+00    3.624144e+03
  7.877243e+00    3.469904e+03
  7.930247e+00    3.281396e+03
  7.983251e+00    3.150975e+03
  8.036255e+00    3.104260e+03
  8.089259e+00    3.082281e+03
  8.142263e+00    3.080537e+03
  8.195267e+00    3.072558e+03
  8.248271e+00    3.058144e+03
  8.301275e+00    3.038534e+03
  8.354280e+00    3.024140e+03
  8.407284e+00    3.016897e+03
  8.460288e+00    3.012166e+03
  8.513292e+00    3.011781e+03
  8.566296e+00    3.044658e+03
  8.619300e+00    3.068794e+03
  8.672304e+00    3.034159e+03
  8.725308e+00    2.999213e+03
  8.778312e+00    2.972353e+03
  8.831316e+00    2.963102e+03
  8.884321e+00    2.967727e+03
  8.937325e+00    2.960155e+03
  8.990329e+00    2.922276e+03
  9.043333e+00    2.871357e+03
  9.096337e+00    2.851163e+03
  9.149341e+00    2.838046e+03
  9.202345e+00    2.788713e+03
  9.255349e+00    2.733393e+03
  9.308353e+00    2.702095e+03
  9.361357e+00    2.687193e+03
  9.414362e+00    2.674196e+03
  9.467366e+00    2.673909e+03
  9.520370e+00    2.654057e+03
  9.573374e+00    2.624785e+03
  9.626378e+00    2.610786e+03
  9.679382e+00    2.605986e+03
  9.732386e+00    2.605755e+03
  9.785390e+00    2.605595e+03
  9.838394e+00    2.605366e+03
  9.891398e+00    2.612632e+03
  9.944403e+00    2.612473e+03
  9.997407e+00    2.596907e+03
  1.005041e+01    2.569141e+03
  1.010341e+01    2.527548e+03
  1.015642e+01    2.507578e+03
  1.020942e+01    2.496840e+03
  1.026243e+01    2.496813e+03
  1.031543e+01    2.520766e+03
  1.036844e+01    2.567558e+03
  1.042144e+01    2.586483e+03
  1.047444e+01    2.582875e+03
  1.052745e+01    2.560566e+03
  1.058045e+01    2.547400e+03
  1.063346e+01    2.518101e+03
  1.068646e+01    2.495142e+03
  1.073946e+01    2.473118e+03
  1.079247e+01    2.462643e+03
  1.084547e+01    2.449804e+03
  1.089848e+01    2.446735e+03
  1.095148e+01    2.445366e+03
  1.100448e+01    2.438244e+03
  1.105749e+01    2.433680e+03
  1.111049e+01    2.435427e+03
  1.116350e+01    2.421822e+03
  1.121650e+01    2.410181e+03
  1.126951e+01    2.397837e+03
  1.132251e+01    2.387735e+03
  1.137551e+01    2.380898e+03
  1.142852e+01    2.378358e+03
  1.148152e+01    2.376204e+03
  1.153453e+01    2.374610e+03
  1.158753e+01    2.371411e+03
  1.164053e+01    2.367140e+03
  1.169354e+01    2.367073e+03
  1.174654e+01    2.388487e+03
  1.179955e+01    2.375133e+03
  1.185255e+01    2.364199e+03
  1.190555e+01    2.348297e+03
  1.195856e+01    2.335481e+03
  1.201156e+01    2.326396e+03
  1.206457e+01    2.317082e+03
  1.211757e+01    2.320974e+03
  1.217057e+01    2.323061e+03
  1.222358e+01    2.320268e+03
  1.227658e+01    2.316186e+03
  1.232959e+01    2.318346e+03
  1.238259e+01    2.311502e+03
  1.243560e+01    2.315309e+03
  1.248860e+01    2.317814e+03
  1.254160e+01    2.319719e+03
  1.259461e+01    2.317304e+03
  1.264761e+01    2.309228e+03
  1.270062e+01    2.295513e+03
  1.275362e+01    2.283044e+03
  1.280662e+01    2.273613e+03
  1.285963e+01    2.263663e+03
  1.291263e+01    2.253130e+03
  1.296564e+01    2.244511e+03
  1.301864e+01    2.239637e+03
  1.307164e+01    2.233817e+03
  1.312465e+01    2.226700e+03
  1.317765e+01    2.222787e+03
  1.323066e+01    2.203890e+03
  1.328366e+01    2.192449e+03
  1.333667e+01    2.184903e+03
  1.338967e+01    2.182317e+03
  1.344267e+01    2.194834e+03
  1.349568e+01    2.192880e+03
  1.354868e+01    2.183672e+03
  1.360169e+01    2.169703e+03
  1.365469e+01    2.156354e+03
  1.370769e+01    2.149472e+03
  1.376070e+01    2.135074e+03
  1.381370e+01    2.129879e+03
  1.386671e+01    2.120278e+03
  1.391971e+01    2.113390e+03
  1.397271e+01    2.109959e+03
  1.402572e+01    2.106476e+03
  1.407872e+01    2.097306e+03
  1.413173e+01    2.091514e+03
  1.418473e+01    2.088776e+03
  1.423773e+01    2.085974e+03
  1.429074e+01    2.078736e+03
  1.434374e+01    2.077258e+03
  1.439675e+01    2.072528e+03
  1.444975e+01    2.068677e+03
  1.450276e+01    2.064297e+03
  1.455576e+01    2.057946e+03
  1.460876e+01    2.054457e+03
  1.466177e+01    2.050045e+03
  1.471477e+01    2.048732e+03
  1.476778e+01    2.050174e+03
  1.482078e+01    2.049737e+03
  1.487378e+01    2.043230e+03
  1.492679e+01    2.039298e+03
  1.497979e+01    2.036578e+03
  1.503280e+01    2.034667e+03
  1.508580e+01    2.031939e+03
  1.513880e+01    2.030815e+03
  1.519181e+01    2.037196e+03
  1.524481e+01    2.060214e+03
  1.529782e+01    2.041259e+03
  1.535082e+01    2.030933e+03
  1.540382e+01    2.024703e+03
  1.545683e+01    2.015645e+03
  1.550983e+01    2.019666e+03
  1.556284e+01    2.016490e+03
  1.561584e+01    2.009217e+03
  1.566885e+01    2.006642e+03
  1.572185e+01    2.004213e+03
  1.577485e+01    2.003320e+03
  1.582786e+01    1.997268e+03
  1.588086e+01    1.995801e+03
  1.593387e+01    1.992690e+03
  1.598687e+01    1.990747e+03
  1.603987e+01    1.981778e+03
  1.609288e+01    1.974661e+03
  1.614588e+01    1.968235e+03
  1.619889e+01    1.968662e+03
  1.625189e+01    1.972074e+03
  1.630489e+01    1.968330e+03
  1.635790e+01    1.966231e+03
  1.641090e+01    1.960438e+03
  1.646391e+01    1.955874e+03
  1.651691e+01    1.952059e+03
  1.656992e+01    1.947448e+03
  1.662292e+01    1.942706e+03
  1.667592e+01    1.941976e+03
  1.672893e+01    1.939482e+03
  1.678193e+01    1.938546e+03
  1.683494e+01    1.934443e+03
  1.688794e+01    1.931008e+03
  1.694094e+01    1.928641e+03
  1.699395e+01    1.924748e+03
  1.704695e+01    1.918952e+03
  1.709996e+01    1.917026e+03
  1.715296e+01    1.912716e+03
  1.720596e+01    1.911327e+03
  1.725897e+01    1.906279e+03
  1.731197e+01    1.903799e+03
  1.736498e+01    1.899786e+03
  1.741798e+01    1.897252e+03
  1.747098e+01    1.897233e+03
  1.752399e+01    1.893711e+03
  1.757699e+01    1.889036e+03
  1.763000e+01    1.884193e+03
  1.768300e+01    1.880147e+03
  1.773601e+01    1.877069e+03
  1.778901e+01    1.872392e+03
  1.784201e+01    1.864993e+03
  1.789502e+01    1.866175e+03
  1.794802e+01    1.858968e+03
  1.800103e+01    1.857681e+03
  1.805403e+01    1.854828e+03
  1.810703e+01    1.847229e+03
  1.816004e+01    1.843239e+03
  1.821304e+01    1.841297e+03
  1.826605e+01    1.844557e+03
  1.831905e+01    1.835049e+03
  1.837205e+01    1.831766e+03
  1.842506e+01    1.827278e+03
  1.847806e+01    1.826368e+03
  1.853107e+01    1.824916e+03
  1.858407e+01    1.823236e+03
  1.863708e+01    1.823716e+03
  1.869008e+01    1.836858e+03
  1.874308e+01    1.826817e+03
  1.879609e+01    1.821747e+03
  1.884909e+01    1.816580e+03
  1.890210e+01    1.814464e+03
  1.895510e+01    1.805842e+03
  1.900810e+01    1.804385e+03
  1.906111e+01    1.797281e+03
  1.911411e+01    1.789274e+03
  1.916712e+01    1.786301e+03
  1.922012e+01    1.782365e+03
  1.927312e+01    1.775626e+03
  1.932613e+01    1.773268e+03
  1.937913e+01    1.767050e+03
  1.943214e+01    1.762536e+03
  1.948514e+01    1.757519e+03
  1.953814e+01    1.752721e+03
  1.959115e+01    1.748920e+03
  1.964415e+01    1.741935e+03
  1.969716e+01    1.739953e+03
  1.975016e+01    1.734276e+03
  1.980317e+01    1.729849e+03
  1.985617e+01    1.725211e+03
  1.990917e+01    1.721083e+03
  1.996218e+01    1.715420e+03
  2.001518e+01    1.711037e+03
  2.006819e+01    1.704040e+03
  2.012119e+01    1.698294e+03
  2.017419e+01    1.692908e+03
  2.022720e+01    1.687969e+03
  2.028020e+01    1.680967e+03
  2.033321e+01    1.674389e+03
  2.038621e+01    1.670093e+03
  2.043921e+01    1.664189e+03
  2.049222e+01    1.661499e+03
  2.054522e+01    1.655117e+03
  2.059823e+01    1.651652e+03
  2.065123e+01    1.645148e+03
  2.070424e+01    1.642698e+03
  2.075724e+01    1.642961e+03
  2.081024e+01    1.648990e+03
  2.086325e+01    1.637720e+03
  2.091625e+01    1.620788e+03
  2.096926e+01    1.607501e+03
  2.102226e+01    1.596667e+03
  2.107526e+01    1.588594e+03
  2.112827e+01    1.577742e+03
  2.118127e+01    1.570222e+03
  2.123428e+01    1.560539e+03
  2.128728e+01    1.551466e+03
  2.134028e+01    1.542078e+03
  2.139329e+01    1.531515e+03
  2.144629e+01    1.523783e+03
  2.149930e+01    1.514970e+03
  2.155230e+01    1.507622e+03
  2.160530e+01    1.498921e+03
  2.165831e+01    1.489272e+03
  2.171131e+01    1.483041e+03
  2.176432e+01    1.477301e+03
  2.181732e+01    1.468185e+03
  2.187033e+01    1.458851e+03
  2.192333e+01    1.452214e+03
  2.197633e+01    1.443407e+03
  2.202934e+01    1.435148e+03
  2.208234e+01    1.425367e+03
  2.213535e+01    1.417152e+03
  2.218835e+01    1.409064e+03
  2.224135e+01    1.399625e+03
  2.229436e+01    1.392146e+03
  2.234736e+01    1.385213e+03
  2.240037e+01    1.375376e+03
  2.245337e+01    1.367889e+03
  2.250637e+01    1.361333e+03
  2.255938e+01    1.354131e+03
  2.261238e+01    1.357356e+03
  2.266539e+01    1.356618e+03
  2.271839e+01    1.357998e+03
  2.277140e+01    1.356882e+03
  2.282440e+01    1.357626e+03
  2.287740e+01    1.354813e+03
  2.293041e+01    1.355934e+03
  2.298341e+01    1.351738e+03
  2.303642e+01    1.352870e+03
  2.308942e+01    1.350752e+03
  2.314242e+01    1.348697e+03
  2.319543e+01    1.342342e+03
  2.324843e+01    1.339986e+03
  2.330144e+01    1.338042e+03
  2.335444e+01    1.334132e+03
  2.340744e+01    1.335227e+03
  2.346045e+01    1.332486e+03
  2.351345e+01    1.330372e+03
  2.356646e+01    1.325857e+03
  2.361946e+01    1.324783e+03
  2.367246e+01    1.325147e+03
  2.372547e+01    1.321001e+03
  2.377847e+01    1.314747e+03
  2.383148e+01    1.311333e+03
  2.388448e+01    1.305667e+03
  2.393749e+01    1.305627e+03
  2.399049e+01    1.300083e+03
  2.404349e+01    1.297903e+03
  2.409650e+01    1.295255e+03
  2.414950e+01    1.288598e+03
  2.420251e+01    1.281861e+03
  2.425551e+01    1.276562e+03
  2.430851e+01    1.268693e+03
  2.436152e+01    1.263720e+03
  2.441452e+01    1.258265e+03
  2.446753e+01    1.251957e+03
  2.452053e+01    1.245581e+03
  2.457353e+01    1.242200e+03
  2.462654e+01    1.238043e+03
  2.467954e+01    1.228404e+03
  2.473255e+01    1.222255e+03
  2.478555e+01    1.213081e+03
  2.483855e+01    1.201906e+03
  2.489156e+01    1.196160e+03
  2.494456e+01    1.184471e+03
  2.499757e+01    1.177434e+03
  2.505057e+01    1.165998e+03
  2.510358e+01    1.160560e+03
  2.515658e+01    1.157884e+03
  2.520958e+01    1.151694e+03
  2.526259e+01    1.146032e+03
  2.531559e+01    1.140926e+03
  2.536860e+01    1.135131e+03
  2.542160e+01    1.127833e+03
  2.547460e+01    1.121261e+03
  2.552761e+01    1.110500e+03
  2.558061e+01    1.114386e+03
  2.563362e+01    1.106839e+03
  2.568662e+01    1.095164e+03
  2.573962e+01    1.090170e+03
  2.579263e+01    1.083991e+03
  2.584563e+01    1.077465e+03
  2.589864e+01    1.073223e+03
  2.595164e+01    1.070599e+03
  2.600465e+01    1.072244e+03
  2.605765e+01    1.063423e+03
  2.611065e+01    1.064402e+03
  2.616366e+01    1.059363e+03
  2.621666e+01    1.048378e+03
  2.626967e+01    1.044248e+03
  2.632267e+01    1.043146e+03
  2.637567e+01    1.031160e+03
  2.642868e+01    1.008890e+03
  2.648168e+01    1.027333e+03
