# == pyFAI calibration ==
# Distance Sample to Detector: 0.2945755399789714 m
# PONI: 2.880e-01, 2.450e-01 m
# Rotations: -0.007291 -0.010887 -0.000000 rad
# 
# == Fit2d calibration ==
# Distance Sample-beamCenter: 294.601 mm
# Center: x=1437.174, y=1655.617 pix
# Tilt: 0.751 deg  TiltPlanRot: -56.193 deg
# 
# Detector Pilatus CdTe 2M	 PixelSize= 1.720e-04, 1.720e-04 m
#    Detector has a mask: True 
#    Detector has a dark current: False 
#    detector has a flat field: False 
# 
# Wavelength: 2.0732883349524408e-11 m
# Mask applied: from detector
# Dark current applied: False
# Flat field applied: False
# Polarization factor: 0.9
# Normalization factor: 1.0
# --> /gpfs/current/raw/FMue_2/FMue_2_20231024_120911_00346.dat
#        q_A^-1             I 
  3.263564e-02             nan
  8.563974e-02             nan
  1.386438e-01             nan
  1.916479e-01             nan
  2.446520e-01    3.885716e+04
  2.976561e-01    2.988593e+04
  3.506602e-01    1.592841e+04
  4.036643e-01    1.113721e+04
  4.566684e-01    9.470948e+03
  5.096725e-01    9.013846e+03
  5.626766e-01    8.698261e+03
  6.156807e-01    8.348253e+03
  6.686848e-01    8.184875e+03
  7.216890e-01    8.224229e+03
  7.746931e-01    8.236208e+03
  8.276972e-01    8.301991e+03
  8.807013e-01    8.382308e+03
  9.337054e-01    8.522375e+03
  9.867095e-01    8.670506e+03
  1.039714e+00    8.928503e+03
  1.092718e+00    9.254499e+03
  1.145722e+00    9.736948e+03
  1.198726e+00    1.031823e+04
  1.251730e+00    1.102487e+04
  1.304734e+00    1.192012e+04
  1.357738e+00    1.278714e+04
  1.410742e+00    1.348214e+04
  1.463746e+00    1.381172e+04
  1.516750e+00    1.376372e+04
  1.569755e+00    1.326849e+04
  1.622759e+00    1.261796e+04
  1.675763e+00    1.174977e+04
  1.728767e+00    1.085623e+04
  1.781771e+00    1.004981e+04
  1.834775e+00    9.371229e+03
  1.887779e+00    8.800212e+03
  1.940783e+00    8.422810e+03
  1.993787e+00    8.105192e+03
  2.046791e+00    7.911735e+03
  2.099796e+00    7.846450e+03
  2.152800e+00    7.839210e+03
  2.205804e+00    7.871896e+03
  2.258808e+00    7.867142e+03
  2.311812e+00    7.821429e+03
  2.364816e+00    7.836096e+03
  2.417820e+00    8.078050e+03
  2.470824e+00    8.667690e+03
  2.523828e+00    9.616179e+03
  2.576832e+00    1.031324e+04
  2.629837e+00    9.370969e+03
  2.682841e+00    8.045460e+03
  2.735845e+00    7.504871e+03
  2.788849e+00    6.883513e+03
  2.841853e+00    6.577735e+03
  2.894857e+00    7.118583e+03
  2.947861e+00    8.875111e+03
  3.000865e+00    1.180437e+04
  3.053869e+00    1.333266e+04
  3.106874e+00    1.143900e+04
  3.159878e+00    9.961754e+03
  3.212882e+00    8.521146e+03
  3.265886e+00    6.526572e+03
  3.318890e+00    5.649038e+03
  3.371894e+00    5.528316e+03
  3.424898e+00    5.793596e+03
  3.477902e+00    6.403884e+03
  3.530906e+00    6.408124e+03
  3.583910e+00    5.614155e+03
  3.636915e+00    5.066673e+03
  3.689919e+00    4.904065e+03
  3.742923e+00    4.900739e+03
  3.795927e+00    4.967646e+03
  3.848931e+00    5.063329e+03
  3.901935e+00    5.227491e+03
  3.954939e+00    5.448828e+03
  4.007943e+00    5.760464e+03
  4.060947e+00    6.127377e+03
  4.113951e+00    6.556116e+03
  4.166956e+00    7.169000e+03
  4.219960e+00    7.856234e+03
  4.272964e+00    7.488814e+03
  4.325968e+00    6.899201e+03
  4.378972e+00    7.420252e+03
  4.431976e+00    9.490015e+03
  4.484980e+00    1.053188e+04
  4.537984e+00    8.330258e+03
  4.590988e+00    6.279053e+03
  4.643992e+00    5.539113e+03
  4.696997e+00    5.344365e+03
  4.750001e+00    5.303147e+03
  4.803005e+00    5.345482e+03
  4.856009e+00    5.568938e+03
  4.909013e+00    6.085350e+03
  4.962017e+00    6.753372e+03
  5.015021e+00    6.575137e+03
  5.068025e+00    5.895569e+03
  5.121029e+00    5.591312e+03
  5.174033e+00    5.405735e+03
  5.227038e+00    5.059725e+03
  5.280042e+00    4.701550e+03
  5.333046e+00    4.452417e+03
  5.386050e+00    4.307417e+03
  5.439054e+00    4.307762e+03
  5.492058e+00    4.269755e+03
  5.545062e+00    3.990344e+03
  5.598066e+00    3.782194e+03
  5.651070e+00    3.737124e+03
  5.704074e+00    3.811602e+03
  5.757079e+00    4.105279e+03
  5.810083e+00    4.646277e+03
  5.863087e+00    4.728960e+03
  5.916091e+00    4.311304e+03
  5.969095e+00    4.132841e+03
  6.022099e+00    4.137789e+03
  6.075103e+00    4.210292e+03
  6.128107e+00    4.105488e+03
  6.181111e+00    3.881366e+03
  6.234115e+00    3.846198e+03
  6.287120e+00    3.913631e+03
  6.340124e+00    3.899385e+03
  6.393128e+00    3.831083e+03
  6.446132e+00    3.736228e+03
  6.499136e+00    3.692348e+03
  6.552140e+00    3.650418e+03
  6.605144e+00    3.647390e+03
  6.658148e+00    3.654719e+03
  6.711152e+00    3.586075e+03
  6.764156e+00    3.487616e+03
  6.817161e+00    3.392774e+03
  6.870165e+00    3.308958e+03
  6.923169e+00    3.258288e+03
  6.976173e+00    3.301821e+03
  7.029177e+00    3.372578e+03
  7.082181e+00    3.398472e+03
  7.135185e+00    3.331243e+03
  7.188189e+00    3.270492e+03
  7.241193e+00    3.262375e+03
  7.294197e+00    3.305314e+03
  7.347202e+00    3.303535e+03
  7.400206e+00    3.280728e+03
  7.453210e+00    3.272942e+03
  7.506214e+00    3.297043e+03
  7.559218e+00    3.350530e+03
  7.612222e+00    3.481886e+03
  7.665226e+00    3.700183e+03
  7.718230e+00    3.879806e+03
  7.771234e+00    3.822641e+03
  7.824239e+00    3.640891e+03
  7.877243e+00    3.486674e+03
  7.930247e+00    3.295971e+03
  7.983251e+00    3.163967e+03
  8.036255e+00    3.114654e+03
  8.089259e+00    3.092387e+03
  8.142263e+00    3.091764e+03
  8.195267e+00    3.082988e+03
  8.248271e+00    3.070004e+03
  8.301275e+00    3.050114e+03
  8.354280e+00    3.033314e+03
  8.407284e+00    3.027042e+03
  8.460288e+00    3.024093e+03
  8.513292e+00    3.021346e+03
  8.566296e+00    3.055714e+03
  8.619300e+00    3.079154e+03
  8.672304e+00    3.049745e+03
  8.725308e+00    3.010707e+03
  8.778312e+00    2.981126e+03
  8.831316e+00    2.974135e+03
  8.884321e+00    2.979905e+03
  8.937325e+00    2.972991e+03
  8.990329e+00    2.931112e+03
  9.043333e+00    2.881894e+03
  9.096337e+00    2.861012e+03
  9.149341e+00    2.849374e+03
  9.202345e+00    2.798569e+03
  9.255349e+00    2.743345e+03
  9.308353e+00    2.713338e+03
  9.361357e+00    2.696193e+03
  9.414362e+00    2.683830e+03
  9.467366e+00    2.683020e+03
  9.520370e+00    2.661215e+03
  9.573374e+00    2.633247e+03
  9.626378e+00    2.620707e+03
  9.679382e+00    2.616530e+03
  9.732386e+00    2.618001e+03
  9.785390e+00    2.612389e+03
  9.838394e+00    2.613170e+03
  9.891398e+00    2.620072e+03
  9.944403e+00    2.624438e+03
  9.997407e+00    2.607304e+03
  1.005041e+01    2.577732e+03
  1.010341e+01    2.536522e+03
  1.015642e+01    2.515451e+03
  1.020942e+01    2.506437e+03
  1.026243e+01    2.504211e+03
  1.031543e+01    2.527091e+03
  1.036844e+01    2.581389e+03
  1.042144e+01    2.599296e+03
  1.047444e+01    2.591039e+03
  1.052745e+01    2.572746e+03
  1.058045e+01    2.557290e+03
  1.063346e+01    2.526937e+03
  1.068646e+01    2.505947e+03
  1.073946e+01    2.481962e+03
  1.079247e+01    2.471284e+03
  1.084547e+01    2.458663e+03
  1.089848e+01    2.457417e+03
  1.095148e+01    2.453391e+03
  1.100448e+01    2.447113e+03
  1.105749e+01    2.442881e+03
  1.111049e+01    2.443592e+03
  1.116350e+01    2.432759e+03
  1.121650e+01    2.419670e+03
  1.126951e+01    2.406336e+03
  1.132251e+01    2.397442e+03
  1.137551e+01    2.388534e+03
  1.142852e+01    2.386995e+03
  1.148152e+01    2.386659e+03
  1.153453e+01    2.384977e+03
  1.158753e+01    2.381529e+03
  1.164053e+01    2.376661e+03
  1.169354e+01    2.376163e+03
  1.174654e+01    2.396278e+03
  1.179955e+01    2.384317e+03
  1.185255e+01    2.374357e+03
  1.190555e+01    2.358767e+03
  1.195856e+01    2.344963e+03
  1.201156e+01    2.335161e+03
  1.206457e+01    2.325403e+03
  1.211757e+01    2.329144e+03
  1.217057e+01    2.330405e+03
  1.222358e+01    2.327522e+03
  1.227658e+01    2.325738e+03
  1.232959e+01    2.324653e+03
  1.238259e+01    2.319425e+03
  1.243560e+01    2.323806e+03
  1.248860e+01    2.322554e+03
  1.254160e+01    2.328949e+03
  1.259461e+01    2.326734e+03
  1.264761e+01    2.317719e+03
  1.270062e+01    2.303956e+03
  1.275362e+01    2.292060e+03
  1.280662e+01    2.280956e+03
  1.285963e+01    2.273181e+03
  1.291263e+01    2.259877e+03
  1.296564e+01    2.253694e+03
  1.301864e+01    2.247065e+03
  1.307164e+01    2.241996e+03
  1.312465e+01    2.236540e+03
  1.317765e+01    2.231464e+03
  1.323066e+01    2.210313e+03
  1.328366e+01    2.200984e+03
  1.333667e+01    2.193477e+03
  1.338967e+01    2.190345e+03
  1.344267e+01    2.202598e+03
  1.349568e+01    2.200563e+03
  1.354868e+01    2.192948e+03
  1.360169e+01    2.179428e+03
  1.365469e+01    2.163516e+03
  1.370769e+01    2.155007e+03
  1.376070e+01    2.143092e+03
  1.381370e+01    2.136382e+03
  1.386671e+01    2.127041e+03
  1.391971e+01    2.120406e+03
  1.397271e+01    2.117925e+03
  1.402572e+01    2.112326e+03
  1.407872e+01    2.104563e+03
  1.413173e+01    2.101973e+03
  1.418473e+01    2.097156e+03
  1.423773e+01    2.091082e+03
  1.429074e+01    2.085805e+03
  1.434374e+01    2.085827e+03
  1.439675e+01    2.079697e+03
  1.444975e+01    2.077722e+03
  1.450276e+01    2.072448e+03
  1.455576e+01    2.066049e+03
  1.460876e+01    2.062649e+03
  1.466177e+01    2.057230e+03
  1.471477e+01    2.056179e+03
  1.476778e+01    2.057283e+03
  1.482078e+01    2.057198e+03
  1.487378e+01    2.050476e+03
  1.492679e+01    2.045994e+03
  1.497979e+01    2.043832e+03
  1.503280e+01    2.041479e+03
  1.508580e+01    2.039465e+03
  1.513880e+01    2.038244e+03
  1.519181e+01    2.046079e+03
  1.524481e+01    2.067308e+03
  1.529782e+01    2.048183e+03
  1.535082e+01    2.039132e+03
  1.540382e+01    2.032049e+03
  1.545683e+01    2.023143e+03
  1.550983e+01    2.027841e+03
  1.556284e+01    2.025013e+03
  1.561584e+01    2.018065e+03
  1.566885e+01    2.012370e+03
  1.572185e+01    2.012106e+03
  1.577485e+01    2.009593e+03
  1.582786e+01    2.005196e+03
  1.588086e+01    2.000990e+03
  1.593387e+01    2.000173e+03
  1.598687e+01    1.998295e+03
  1.603987e+01    1.989585e+03
  1.609288e+01    1.982856e+03
  1.614588e+01    1.975000e+03
  1.619889e+01    1.977138e+03
  1.625189e+01    1.978161e+03
  1.630489e+01    1.976878e+03
  1.635790e+01    1.973307e+03
  1.641090e+01    1.968293e+03
  1.646391e+01    1.960327e+03
  1.651691e+01    1.959858e+03
  1.656992e+01    1.953728e+03
  1.662292e+01    1.948537e+03
  1.667592e+01    1.948724e+03
  1.672893e+01    1.943349e+03
  1.678193e+01    1.944255e+03
  1.683494e+01    1.940628e+03
  1.688794e+01    1.938388e+03
  1.694094e+01    1.933760e+03
  1.699395e+01    1.930770e+03
  1.704695e+01    1.928071e+03
  1.709996e+01    1.924476e+03
  1.715296e+01    1.919660e+03
  1.720596e+01    1.917297e+03
  1.725897e+01    1.912696e+03
  1.731197e+01    1.909731e+03
  1.736498e+01    1.903825e+03
  1.741798e+01    1.904938e+03
  1.747098e+01    1.902956e+03
  1.752399e+01    1.901119e+03
  1.757699e+01    1.896860e+03
  1.763000e+01    1.891026e+03
  1.768300e+01    1.887663e+03
  1.773601e+01    1.882471e+03
  1.778901e+01    1.879117e+03
  1.784201e+01    1.872865e+03
  1.789502e+01    1.871540e+03
  1.794802e+01    1.865002e+03
  1.800103e+01    1.863303e+03
  1.805403e+01    1.860598e+03
  1.810703e+01    1.854443e+03
  1.816004e+01    1.850554e+03
  1.821304e+01    1.848114e+03
  1.826605e+01    1.851269e+03
  1.831905e+01    1.841756e+03
  1.837205e+01    1.838312e+03
  1.842506e+01    1.835433e+03
  1.847806e+01    1.833022e+03
  1.853107e+01    1.832548e+03
  1.858407e+01    1.829526e+03
  1.863708e+01    1.830323e+03
  1.869008e+01    1.843947e+03
  1.874308e+01    1.833847e+03
  1.879609e+01    1.828062e+03
  1.884909e+01    1.822828e+03
  1.890210e+01    1.821431e+03
  1.895510e+01    1.811722e+03
  1.900810e+01    1.809236e+03
  1.906111e+01    1.803123e+03
  1.911411e+01    1.796633e+03
  1.916712e+01    1.792082e+03
  1.922012e+01    1.788678e+03
  1.927312e+01    1.781803e+03
  1.932613e+01    1.777714e+03
  1.937913e+01    1.773402e+03
  1.943214e+01    1.768902e+03
  1.948514e+01    1.763819e+03
  1.953814e+01    1.759077e+03
  1.959115e+01    1.753796e+03
  1.964415e+01    1.749145e+03
  1.969716e+01    1.746162e+03
  1.975016e+01    1.741506e+03
  1.980317e+01    1.735849e+03
  1.985617e+01    1.732908e+03
  1.990917e+01    1.726135e+03
  1.996218e+01    1.721309e+03
  2.001518e+01    1.716130e+03
  2.006819e+01    1.709604e+03
  2.012119e+01    1.703860e+03
  2.017419e+01    1.699276e+03
  2.022720e+01    1.693765e+03
  2.028020e+01    1.686599e+03
  2.033321e+01    1.682209e+03
  2.038621e+01    1.676685e+03
  2.043921e+01    1.671080e+03
  2.049222e+01    1.667306e+03
  2.054522e+01    1.661990e+03
  2.059823e+01    1.657314e+03
  2.065123e+01    1.652131e+03
  2.070424e+01    1.649726e+03
  2.075724e+01    1.646658e+03
  2.081024e+01    1.655007e+03
  2.086325e+01    1.642815e+03
  2.091625e+01    1.626891e+03
  2.096926e+01    1.614514e+03
  2.102226e+01    1.602535e+03
  2.107526e+01    1.594846e+03
  2.112827e+01    1.583722e+03
  2.118127e+01    1.574456e+03
  2.123428e+01    1.565633e+03
  2.128728e+01    1.556810e+03
  2.134028e+01    1.548122e+03
  2.139329e+01    1.538600e+03
  2.144629e+01    1.528022e+03
  2.149930e+01    1.520718e+03
  2.155230e+01    1.512335e+03
  2.160530e+01    1.505734e+03
  2.165831e+01    1.493082e+03
  2.171131e+01    1.488894e+03
  2.176432e+01    1.481752e+03
  2.181732e+01    1.472724e+03
  2.187033e+01    1.463649e+03
  2.192333e+01    1.458268e+03
  2.197633e+01    1.446574e+03
  2.202934e+01    1.440293e+03
  2.208234e+01    1.430616e+03
  2.213535e+01    1.422971e+03
  2.218835e+01    1.413657e+03
  2.224135e+01    1.404279e+03
  2.229436e+01    1.398337e+03
  2.234736e+01    1.389940e+03
  2.240037e+01    1.379273e+03
  2.245337e+01    1.372467e+03
  2.250637e+01    1.365458e+03
  2.255938e+01    1.357060e+03
  2.261238e+01    1.361434e+03
  2.266539e+01    1.363297e+03
  2.271839e+01    1.364055e+03
  2.277140e+01    1.362540e+03
  2.282440e+01    1.361352e+03
  2.287740e+01    1.357592e+03
  2.293041e+01    1.358882e+03
  2.298341e+01    1.358217e+03
  2.303642e+01    1.357612e+03
  2.308942e+01    1.355450e+03
  2.314242e+01    1.352790e+03
  2.319543e+01    1.349122e+03
  2.324843e+01    1.345364e+03
  2.330144e+01    1.343001e+03
  2.335444e+01    1.341568e+03
  2.340744e+01    1.339547e+03
  2.346045e+01    1.337985e+03
  2.351345e+01    1.334124e+03
  2.356646e+01    1.331818e+03
  2.361946e+01    1.330789e+03
  2.367246e+01    1.331538e+03
  2.372547e+01    1.325611e+03
  2.377847e+01    1.320827e+03
  2.383148e+01    1.314215e+03
  2.388448e+01    1.311604e+03
  2.393749e+01    1.308472e+03
  2.399049e+01    1.305812e+03
  2.404349e+01    1.303820e+03
  2.409650e+01    1.298277e+03
  2.414950e+01    1.292803e+03
  2.420251e+01    1.286463e+03
  2.425551e+01    1.279704e+03
  2.430851e+01    1.275867e+03
  2.436152e+01    1.270230e+03
  2.441452e+01    1.263121e+03
  2.446753e+01    1.258632e+03
  2.452053e+01    1.251328e+03
  2.457353e+01    1.245375e+03
  2.462654e+01    1.242363e+03
  2.467954e+01    1.234182e+03
  2.473255e+01    1.223776e+03
  2.478555e+01    1.215615e+03
  2.483855e+01    1.205828e+03
  2.489156e+01    1.196957e+03
  2.494456e+01    1.188348e+03
  2.499757e+01    1.179978e+03
  2.505057e+01    1.171590e+03
  2.510358e+01    1.164813e+03
  2.515658e+01    1.158892e+03
  2.520958e+01    1.155719e+03
  2.526259e+01    1.149546e+03
  2.531559e+01    1.145064e+03
  2.536860e+01    1.137373e+03
  2.542160e+01    1.132363e+03
  2.547460e+01    1.125096e+03
  2.552761e+01    1.116037e+03
  2.558061e+01    1.117200e+03
  2.563362e+01    1.112433e+03
  2.568662e+01    1.102313e+03
  2.573962e+01    1.094302e+03
  2.579263e+01    1.084712e+03
  2.584563e+01    1.079167e+03
  2.589864e+01    1.073907e+03
  2.595164e+01    1.072225e+03
  2.600465e+01    1.074798e+03
  2.605765e+01    1.071476e+03
  2.611065e+01    1.065078e+03
  2.616366e+01    1.066825e+03
  2.621666e+01    1.053337e+03
  2.626967e+01    1.042802e+03
  2.632267e+01    1.041873e+03
  2.637567e+01    1.038082e+03
  2.642868e+01    1.007420e+03
  2.648168e+01    1.013702e+03
