# == pyFAI calibration ==
# Distance Sample to Detector: 0.2945755399789714 m
# PONI: 2.880e-01, 2.450e-01 m
# Rotations: -0.007291 -0.010887 -0.000000 rad
# 
# == Fit2d calibration ==
# Distance Sample-beamCenter: 294.601 mm
# Center: x=1437.174, y=1655.617 pix
# Tilt: 0.751 deg  TiltPlanRot: -56.193 deg
# 
# Detector Pilatus CdTe 2M	 PixelSize= 1.720e-04, 1.720e-04 m
#    Detector has a mask: True 
#    Detector has a dark current: False 
#    detector has a flat field: False 
# 
# Wavelength: 2.0732883349524408e-11 m
# Mask applied: from detector
# Dark current applied: False
# Flat field applied: False
# Polarization factor: 0.9
# Normalization factor: 1.0
# --> /gpfs/current/raw/FMue_2/FMue_2_20231024_120911_00267.dat
#        q_A^-1             I 
  3.263564e-02             nan
  8.563974e-02             nan
  1.386438e-01             nan
  1.916479e-01             nan
  2.446520e-01    3.892163e+04
  2.976561e-01    3.007353e+04
  3.506602e-01    1.605143e+04
  4.036643e-01    1.124079e+04
  4.566684e-01    9.574081e+03
  5.096725e-01    9.098589e+03
  5.626766e-01    8.776303e+03
  6.156807e-01    8.418325e+03
  6.686848e-01    8.247219e+03
  7.216890e-01    8.288503e+03
  7.746931e-01    8.282229e+03
  8.276972e-01    8.365979e+03
  8.807013e-01    8.428933e+03
  9.337054e-01    8.573509e+03
  9.867095e-01    8.727688e+03
  1.039714e+00    8.975419e+03
  1.092718e+00    9.311545e+03
  1.145722e+00    9.791895e+03
  1.198726e+00    1.038176e+04
  1.251730e+00    1.108472e+04
  1.304734e+00    1.197483e+04
  1.357738e+00    1.284123e+04
  1.410742e+00    1.354754e+04
  1.463746e+00    1.388573e+04
  1.516750e+00    1.384710e+04
  1.569755e+00    1.336325e+04
  1.622759e+00    1.270241e+04
  1.675763e+00    1.183438e+04
  1.728767e+00    1.093632e+04
  1.781771e+00    1.013240e+04
  1.834775e+00    9.462938e+03
  1.887779e+00    8.882374e+03
  1.940783e+00    8.518238e+03
  1.993787e+00    8.204290e+03
  2.046791e+00    8.019456e+03
  2.099796e+00    7.954919e+03
  2.152800e+00    7.953824e+03
  2.205804e+00    8.004628e+03
  2.258808e+00    8.046949e+03
  2.311812e+00    8.045427e+03
  2.364816e+00    8.102921e+03
  2.417820e+00    8.394161e+03
  2.470824e+00    9.053484e+03
  2.523828e+00    1.022485e+04
  2.576832e+00    1.124141e+04
  2.629837e+00    9.907573e+03
  2.682841e+00    8.221816e+03
  2.735845e+00    7.633509e+03
  2.788849e+00    7.022818e+03
  2.841853e+00    6.739346e+03
  2.894857e+00    7.480385e+03
  2.947861e+00    9.818852e+03
  3.000865e+00    1.202994e+04
  3.053869e+00    1.167588e+04
  3.106874e+00    1.009920e+04
  3.159878e+00    9.459338e+03
  3.212882e+00    8.256619e+03
  3.265886e+00    6.321844e+03
  3.318890e+00    5.459617e+03
  3.371894e+00    5.306167e+03
  3.424898e+00    5.444952e+03
  3.477902e+00    5.778281e+03
  3.530906e+00    5.743964e+03
  3.583910e+00    5.266084e+03
  3.636915e+00    4.953989e+03
  3.689919e+00    4.870394e+03
  3.742923e+00    4.893752e+03
  3.795927e+00    4.980426e+03
  3.848931e+00    5.099027e+03
  3.901935e+00    5.277305e+03
  3.954939e+00    5.500490e+03
  4.007943e+00    5.833107e+03
  4.060947e+00    6.263717e+03
  4.113951e+00    6.856201e+03
  4.166956e+00    7.923756e+03
  4.219960e+00    9.012388e+03
  4.272964e+00    8.135723e+03
  4.325968e+00    7.024805e+03
  4.378972e+00    7.415380e+03
  4.431976e+00    9.488213e+03
  4.484980e+00    1.056494e+04
  4.537984e+00    8.390114e+03
  4.590988e+00    6.351167e+03
  4.643992e+00    5.618466e+03
  4.696997e+00    5.433949e+03
  4.750001e+00    5.403485e+03
  4.803005e+00    5.461707e+03
  4.856009e+00    5.710538e+03
  4.909013e+00    6.241449e+03
  4.962017e+00    6.672546e+03
  5.015021e+00    6.341163e+03
  5.068025e+00    5.836368e+03
  5.121029e+00    5.709675e+03
  5.174033e+00    5.598838e+03
  5.227038e+00    5.152698e+03
  5.280042e+00    4.711743e+03
  5.333046e+00    4.443926e+03
  5.386050e+00    4.290423e+03
  5.439054e+00    4.291477e+03
  5.492058e+00    4.254500e+03
  5.545062e+00    3.967793e+03
  5.598066e+00    3.755295e+03
  5.651070e+00    3.690550e+03
  5.704074e+00    3.729110e+03
  5.757079e+00    3.921412e+03
  5.810083e+00    4.239993e+03
  5.863087e+00    4.303926e+03
  5.916091e+00    4.150036e+03
  5.969095e+00    4.114121e+03
  6.022099e+00    4.101867e+03
  6.075103e+00    4.100560e+03
  6.128107e+00    4.000515e+03
  6.181111e+00    3.861878e+03
  6.234115e+00    3.873526e+03
  6.287120e+00    3.962400e+03
  6.340124e+00    3.974532e+03
  6.393128e+00    3.933925e+03
  6.446132e+00    3.876339e+03
  6.499136e+00    3.857746e+03
  6.552140e+00    3.803481e+03
  6.605144e+00    3.811629e+03
  6.658148e+00    3.834511e+03
  6.711152e+00    3.721627e+03
  6.764156e+00    3.556976e+03
  6.817161e+00    3.435833e+03
  6.870165e+00    3.341314e+03
  6.923169e+00    3.286527e+03
  6.976173e+00    3.318641e+03
  7.029177e+00    3.389563e+03
  7.082181e+00    3.418363e+03
  7.135185e+00    3.375032e+03
  7.188189e+00    3.341085e+03
  7.241193e+00    3.369088e+03
  7.294197e+00    3.437788e+03
  7.347202e+00    3.403227e+03
  7.400206e+00    3.324477e+03
  7.453210e+00    3.293537e+03
  7.506214e+00    3.303218e+03
  7.559218e+00    3.335539e+03
  7.612222e+00    3.432669e+03
  7.665226e+00    3.617064e+03
  7.718230e+00    3.813296e+03
  7.771234e+00    3.775096e+03
  7.824239e+00    3.559230e+03
  7.877243e+00    3.381895e+03
  7.930247e+00    3.227774e+03
  7.983251e+00    3.134222e+03
  8.036255e+00    3.101883e+03
  8.089259e+00    3.092653e+03
  8.142263e+00    3.094558e+03
  8.195267e+00    3.093405e+03
  8.248271e+00    3.084498e+03
  8.301275e+00    3.071328e+03
  8.354280e+00    3.059134e+03
  8.407284e+00    3.060374e+03
  8.460288e+00    3.053396e+03
  8.513292e+00    3.042441e+03
  8.566296e+00    3.056966e+03
  8.619300e+00    3.062624e+03
  8.672304e+00    3.049360e+03
  8.725308e+00    3.039339e+03
  8.778312e+00    3.029462e+03
  8.831316e+00    3.025434e+03
  8.884321e+00    3.029249e+03
  8.937325e+00    3.015836e+03
  8.990329e+00    2.961464e+03
  9.043333e+00    2.891730e+03
  9.096337e+00    2.849140e+03
  9.149341e+00    2.825235e+03
  9.202345e+00    2.789568e+03
  9.255349e+00    2.755641e+03
  9.308353e+00    2.734420e+03
  9.361357e+00    2.729687e+03
  9.414362e+00    2.719454e+03
  9.467366e+00    2.717676e+03
  9.520370e+00    2.691561e+03
  9.573374e+00    2.663368e+03
  9.626378e+00    2.647505e+03
  9.679382e+00    2.643659e+03
  9.732386e+00    2.644066e+03
  9.785390e+00    2.642735e+03
  9.838394e+00    2.637823e+03
  9.891398e+00    2.640497e+03
  9.944403e+00    2.633744e+03
  9.997407e+00    2.614556e+03
  1.005041e+01    2.587696e+03
  1.010341e+01    2.547122e+03
  1.015642e+01    2.526400e+03
  1.020942e+01    2.515809e+03
  1.026243e+01    2.513322e+03
  1.031543e+01    2.531585e+03
  1.036844e+01    2.569291e+03
  1.042144e+01    2.578407e+03
  1.047444e+01    2.574928e+03
  1.052745e+01    2.562625e+03
  1.058045e+01    2.552762e+03
  1.063346e+01    2.533211e+03
  1.068646e+01    2.519224e+03
  1.073946e+01    2.499099e+03
  1.079247e+01    2.487298e+03
  1.084547e+01    2.473125e+03
  1.089848e+01    2.472821e+03
  1.095148e+01    2.471573e+03
  1.100448e+01    2.464826e+03
  1.105749e+01    2.462570e+03
  1.111049e+01    2.461848e+03
  1.116350e+01    2.449400e+03
  1.121650e+01    2.438069e+03
  1.126951e+01    2.422361e+03
  1.132251e+01    2.414328e+03
  1.137551e+01    2.406278e+03
  1.142852e+01    2.401007e+03
  1.148152e+01    2.393215e+03
  1.153453e+01    2.392656e+03
  1.158753e+01    2.382910e+03
  1.164053e+01    2.378930e+03
  1.169354e+01    2.381247e+03
  1.174654e+01    2.406442e+03
  1.179955e+01    2.399021e+03
  1.185255e+01    2.388722e+03
  1.190555e+01    2.372154e+03
  1.195856e+01    2.360077e+03
  1.201156e+01    2.349617e+03
  1.206457e+01    2.343305e+03
  1.211757e+01    2.347059e+03
  1.217057e+01    2.347088e+03
  1.222358e+01    2.346403e+03
  1.227658e+01    2.344178e+03
  1.232959e+01    2.343804e+03
  1.238259e+01    2.335195e+03
  1.243560e+01    2.337367e+03
  1.248860e+01    2.335243e+03
  1.254160e+01    2.340372e+03
  1.259461e+01    2.338557e+03
  1.264761e+01    2.327465e+03
  1.270062e+01    2.316366e+03
  1.275362e+01    2.304209e+03
  1.280662e+01    2.295822e+03
  1.285963e+01    2.288132e+03
  1.291263e+01    2.275798e+03
  1.296564e+01    2.265779e+03
  1.301864e+01    2.260323e+03
  1.307164e+01    2.252059e+03
  1.312465e+01    2.245017e+03
  1.317765e+01    2.239230e+03
  1.323066e+01    2.219234e+03
  1.328366e+01    2.212804e+03
  1.333667e+01    2.203892e+03
  1.338967e+01    2.199082e+03
  1.344267e+01    2.213194e+03
  1.349568e+01    2.208616e+03
  1.354868e+01    2.199992e+03
  1.360169e+01    2.189183e+03
  1.365469e+01    2.175616e+03
  1.370769e+01    2.167595e+03
  1.376070e+01    2.155946e+03
  1.381370e+01    2.147644e+03
  1.386671e+01    2.141296e+03
  1.391971e+01    2.132456e+03
  1.397271e+01    2.128613e+03
  1.402572e+01    2.124555e+03
  1.407872e+01    2.117825e+03
  1.413173e+01    2.111632e+03
  1.418473e+01    2.109921e+03
  1.423773e+01    2.104471e+03
  1.429074e+01    2.097488e+03
  1.434374e+01    2.096811e+03
  1.439675e+01    2.088735e+03
  1.444975e+01    2.086605e+03
  1.450276e+01    2.080727e+03
  1.455576e+01    2.076761e+03
  1.460876e+01    2.073275e+03
  1.466177e+01    2.070026e+03
  1.471477e+01    2.068374e+03
  1.476778e+01    2.070336e+03
  1.482078e+01    2.069585e+03
  1.487378e+01    2.062976e+03
  1.492679e+01    2.060644e+03
  1.497979e+01    2.056471e+03
  1.503280e+01    2.053131e+03
  1.508580e+01    2.052668e+03
  1.513880e+01    2.050815e+03
  1.519181e+01    2.056044e+03
  1.524481e+01    2.078553e+03
  1.529782e+01    2.061040e+03
  1.535082e+01    2.048644e+03
  1.540382e+01    2.041914e+03
  1.545683e+01    2.033510e+03
  1.550983e+01    2.038484e+03
  1.556284e+01    2.035427e+03
  1.561584e+01    2.027674e+03
  1.566885e+01    2.025890e+03
  1.572185e+01    2.023411e+03
  1.577485e+01    2.019981e+03
  1.582786e+01    2.015144e+03
  1.588086e+01    2.012123e+03
  1.593387e+01    2.010286e+03
  1.598687e+01    2.007787e+03
  1.603987e+01    1.999493e+03
  1.609288e+01    1.990420e+03
  1.614588e+01    1.984467e+03
  1.619889e+01    1.987373e+03
  1.625189e+01    1.990351e+03
  1.630489e+01    1.986934e+03
  1.635790e+01    1.982106e+03
  1.641090e+01    1.979203e+03
  1.646391e+01    1.972123e+03
  1.651691e+01    1.970543e+03
  1.656992e+01    1.964404e+03
  1.662292e+01    1.959006e+03
  1.667592e+01    1.958465e+03
  1.672893e+01    1.957333e+03
  1.678193e+01    1.956610e+03
  1.683494e+01    1.951142e+03
  1.688794e+01    1.951294e+03
  1.694094e+01    1.947412e+03
  1.699395e+01    1.943000e+03
  1.704695e+01    1.940799e+03
  1.709996e+01    1.936249e+03
  1.715296e+01    1.931357e+03
  1.720596e+01    1.929690e+03
  1.725897e+01    1.925576e+03
  1.731197e+01    1.922020e+03
  1.736498e+01    1.917371e+03
  1.741798e+01    1.916560e+03
  1.747098e+01    1.914137e+03
  1.752399e+01    1.911094e+03
  1.757699e+01    1.908140e+03
  1.763000e+01    1.901395e+03
  1.768300e+01    1.898396e+03
  1.773601e+01    1.894002e+03
  1.778901e+01    1.890303e+03
  1.784201e+01    1.883043e+03
  1.789502e+01    1.881581e+03
  1.794802e+01    1.875486e+03
  1.800103e+01    1.873720e+03
  1.805403e+01    1.869724e+03
  1.810703e+01    1.864567e+03
  1.816004e+01    1.859546e+03
  1.821304e+01    1.858459e+03
  1.826605e+01    1.859906e+03
  1.831905e+01    1.851504e+03
  1.837205e+01    1.848334e+03
  1.842506e+01    1.844141e+03
  1.847806e+01    1.841581e+03
  1.853107e+01    1.841141e+03
  1.858407e+01    1.840265e+03
  1.863708e+01    1.840200e+03
  1.869008e+01    1.854685e+03
  1.874308e+01    1.845312e+03
  1.879609e+01    1.837719e+03
  1.884909e+01    1.833076e+03
  1.890210e+01    1.830337e+03
  1.895510e+01    1.823127e+03
  1.900810e+01    1.820329e+03
  1.906111e+01    1.814300e+03
  1.911411e+01    1.805923e+03
  1.916712e+01    1.803195e+03
  1.922012e+01    1.799016e+03
  1.927312e+01    1.791100e+03
  1.932613e+01    1.789021e+03
  1.937913e+01    1.784177e+03
  1.943214e+01    1.779454e+03
  1.948514e+01    1.773902e+03
  1.953814e+01    1.770173e+03
  1.959115e+01    1.764948e+03
  1.964415e+01    1.760032e+03
  1.969716e+01    1.755631e+03
  1.975016e+01    1.751470e+03
  1.980317e+01    1.745591e+03
  1.985617e+01    1.741325e+03
  1.990917e+01    1.734858e+03
  1.996218e+01    1.730976e+03
  2.001518e+01    1.725857e+03
  2.006819e+01    1.718993e+03
  2.012119e+01    1.713049e+03
  2.017419e+01    1.707795e+03
  2.022720e+01    1.702236e+03
  2.028020e+01    1.696145e+03
  2.033321e+01    1.690205e+03
  2.038621e+01    1.683874e+03
  2.043921e+01    1.679989e+03
  2.049222e+01    1.675724e+03
  2.054522e+01    1.670328e+03
  2.059823e+01    1.666089e+03
  2.065123e+01    1.658431e+03
  2.070424e+01    1.654600e+03
  2.075724e+01    1.656658e+03
  2.081024e+01    1.664285e+03
  2.086325e+01    1.652877e+03
  2.091625e+01    1.636544e+03
  2.096926e+01    1.621522e+03
  2.102226e+01    1.610840e+03
  2.107526e+01    1.601238e+03
  2.112827e+01    1.591094e+03
  2.118127e+01    1.583410e+03
  2.123428e+01    1.574643e+03
  2.128728e+01    1.563979e+03
  2.134028e+01    1.556227e+03
  2.139329e+01    1.544134e+03
  2.144629e+01    1.535614e+03
  2.149930e+01    1.526742e+03
  2.155230e+01    1.518952e+03
  2.160530e+01    1.509637e+03
  2.165831e+01    1.499712e+03
  2.171131e+01    1.494701e+03
  2.176432e+01    1.489809e+03
  2.181732e+01    1.478486e+03
  2.187033e+01    1.469787e+03
  2.192333e+01    1.463757e+03
  2.197633e+01    1.454319e+03
  2.202934e+01    1.447131e+03
  2.208234e+01    1.437336e+03
  2.213535e+01    1.428357e+03
  2.218835e+01    1.418778e+03
  2.224135e+01    1.412330e+03
  2.229436e+01    1.403270e+03
  2.234736e+01    1.396260e+03
  2.240037e+01    1.385014e+03
  2.245337e+01    1.379207e+03
  2.250637e+01    1.370998e+03
  2.255938e+01    1.363398e+03
  2.261238e+01    1.367597e+03
  2.266539e+01    1.367261e+03
  2.271839e+01    1.368938e+03
  2.277140e+01    1.367978e+03
  2.282440e+01    1.367458e+03
  2.287740e+01    1.365346e+03
  2.293041e+01    1.365311e+03
  2.298341e+01    1.363427e+03
  2.303642e+01    1.364656e+03
  2.308942e+01    1.361510e+03
  2.314242e+01    1.358615e+03
  2.319543e+01    1.355456e+03
  2.324843e+01    1.351542e+03
  2.330144e+01    1.349112e+03
  2.335444e+01    1.347035e+03
  2.340744e+01    1.345408e+03
  2.346045e+01    1.344696e+03
  2.351345e+01    1.341059e+03
  2.356646e+01    1.336497e+03
  2.361946e+01    1.335508e+03
  2.367246e+01    1.335169e+03
  2.372547e+01    1.330600e+03
  2.377847e+01    1.325316e+03
  2.383148e+01    1.320290e+03
  2.388448e+01    1.318378e+03
  2.393749e+01    1.313437e+03
  2.399049e+01    1.312649e+03
  2.404349e+01    1.307858e+03
  2.409650e+01    1.303386e+03
  2.414950e+01    1.297131e+03
  2.420251e+01    1.292433e+03
  2.425551e+01    1.287931e+03
  2.430851e+01    1.280112e+03
  2.436152e+01    1.274283e+03
  2.441452e+01    1.267308e+03
  2.446753e+01    1.262831e+03
  2.452053e+01    1.255797e+03
  2.457353e+01    1.250084e+03
  2.462654e+01    1.250200e+03
  2.467954e+01    1.236097e+03
  2.473255e+01    1.230768e+03
  2.478555e+01    1.219531e+03
  2.483855e+01    1.208260e+03
  2.489156e+01    1.203047e+03
  2.494456e+01    1.192801e+03
  2.499757e+01    1.185120e+03
  2.505057e+01    1.177291e+03
  2.510358e+01    1.170702e+03
  2.515658e+01    1.164268e+03
  2.520958e+01    1.159927e+03
  2.526259e+01    1.152654e+03
  2.531559e+01    1.147154e+03
  2.536860e+01    1.143459e+03
  2.542160e+01    1.138271e+03
  2.547460e+01    1.128404e+03
  2.552761e+01    1.121215e+03
  2.558061e+01    1.121421e+03
  2.563362e+01    1.113008e+03
  2.568662e+01    1.105089e+03
  2.573962e+01    1.101159e+03
  2.579263e+01    1.089071e+03
  2.584563e+01    1.084223e+03
  2.589864e+01    1.080953e+03
  2.595164e+01    1.078446e+03
  2.600465e+01    1.077801e+03
  2.605765e+01    1.067259e+03
  2.611065e+01    1.069664e+03
  2.616366e+01    1.070907e+03
  2.621666e+01    1.061316e+03
  2.626967e+01    1.048779e+03
  2.632267e+01    1.050904e+03
  2.637567e+01    1.043213e+03
  2.642868e+01    1.024780e+03
  2.648168e+01    9.984362e+02
