# == pyFAI calibration ==
# Distance Sample to Detector: 0.2945755399789714 m
# PONI: 2.880e-01, 2.450e-01 m
# Rotations: -0.007291 -0.010887 -0.000000 rad
# 
# == Fit2d calibration ==
# Distance Sample-beamCenter: 294.601 mm
# Center: x=1437.174, y=1655.617 pix
# Tilt: 0.751 deg  TiltPlanRot: -56.193 deg
# 
# Detector Pilatus CdTe 2M	 PixelSize= 1.720e-04, 1.720e-04 m
#    Detector has a mask: True 
#    Detector has a dark current: False 
#    detector has a flat field: False 
# 
# Wavelength: 2.0732883349524408e-11 m
# Mask applied: from detector
# Dark current applied: False
# Flat field applied: False
# Polarization factor: 0.9
# Normalization factor: 1.0
# --> /gpfs/current/raw/FMue_2/FMue_2_20231024_120911_00005.dat
#        q_A^-1             I 
  3.263564e-02             nan
  8.563974e-02             nan
  1.386438e-01             nan
  1.916479e-01             nan
  2.446520e-01    3.415470e+04
  2.976561e-01    2.696198e+04
  3.506602e-01    1.459009e+04
  4.036643e-01    1.027154e+04
  4.566684e-01    8.834484e+03
  5.096725e-01    8.511238e+03
  5.626766e-01    8.342134e+03
  6.156807e-01    8.163824e+03
  6.686848e-01    8.117181e+03
  7.216890e-01    8.255053e+03
  7.746931e-01    8.304398e+03
  8.276972e-01    8.414437e+03
  8.807013e-01    8.503417e+03
  9.337054e-01    8.663118e+03
  9.867095e-01    8.820827e+03
  1.039714e+00    9.080304e+03
  1.092718e+00    9.421566e+03
  1.145722e+00    9.914941e+03
  1.198726e+00    1.053711e+04
  1.251730e+00    1.139187e+04
  1.304734e+00    1.275251e+04
  1.357738e+00    1.384152e+04
  1.410742e+00    1.409028e+04
  1.463746e+00    1.411198e+04
  1.516750e+00    1.397029e+04
  1.569755e+00    1.344717e+04
  1.622759e+00    1.276453e+04
  1.675763e+00    1.189870e+04
  1.728767e+00    1.099885e+04
  1.781771e+00    1.018739e+04
  1.834775e+00    9.499304e+03
  1.887779e+00    8.903179e+03
  1.940783e+00    8.528752e+03
  1.993787e+00    8.222504e+03
  2.046791e+00    8.156230e+03
  2.099796e+00    8.620231e+03
  2.152800e+00    1.027563e+04
  2.205804e+00    1.116528e+04
  2.258808e+00    9.465914e+03
  2.311812e+00    8.167188e+03
  2.364816e+00    7.778272e+03
  2.417820e+00    8.034390e+03
  2.470824e+00    9.542709e+03
  2.523828e+00    1.476471e+04
  2.576832e+00    1.934158e+04
  2.629837e+00    1.435022e+04
  2.682841e+00    9.585211e+03
  2.735845e+00    7.767333e+03
  2.788849e+00    6.534676e+03
  2.841853e+00    5.633106e+03
  2.894857e+00    5.231574e+03
  2.947861e+00    5.130328e+03
  3.000865e+00    5.419027e+03
  3.053869e+00    6.825225e+03
  3.106874e+00    9.294159e+03
  3.159878e+00    9.761850e+03
  3.212882e+00    8.282271e+03
  3.265886e+00    6.051541e+03
  3.318890e+00    4.896539e+03
  3.371894e+00    4.614491e+03
  3.424898e+00    4.520383e+03
  3.477902e+00    4.492133e+03
  3.530906e+00    4.482835e+03
  3.583910e+00    4.487923e+03
  3.636915e+00    4.558071e+03
  3.689919e+00    4.762764e+03
  3.742923e+00    5.304597e+03
  3.795927e+00    5.950183e+03
  3.848931e+00    5.832539e+03
  3.901935e+00    5.761004e+03
  3.954939e+00    6.818898e+03
  4.007943e+00    9.003633e+03
  4.060947e+00    9.326559e+03
  4.113951e+00    7.579802e+03
  4.166956e+00    6.477925e+03
  4.219960e+00    6.091541e+03
  4.272964e+00    6.296885e+03
  4.325968e+00    8.092161e+03
  4.378972e+00    1.230277e+04
  4.431976e+00    1.367775e+04
  4.484980e+00    1.240109e+04
  4.537984e+00    9.581837e+03
  4.590988e+00    6.697433e+03
  4.643992e+00    5.439374e+03
  4.696997e+00    5.027666e+03
  4.750001e+00    4.876396e+03
  4.803005e+00    4.873387e+03
  4.856009e+00    5.040657e+03
  4.909013e+00    5.228883e+03
  4.962017e+00    5.264600e+03
  5.015021e+00    5.519238e+03
  5.068025e+00    6.176829e+03
  5.121029e+00    6.352789e+03
  5.174033e+00    5.670361e+03
  5.227038e+00    4.925289e+03
  5.280042e+00    4.518280e+03
  5.333046e+00    4.416648e+03
  5.386050e+00    4.449156e+03
  5.439054e+00    4.283626e+03
  5.492058e+00    4.229682e+03
  5.545062e+00    3.965368e+03
  5.598066e+00    3.625373e+03
  5.651070e+00    3.489073e+03
  5.704074e+00    3.526505e+03
  5.757079e+00    3.765990e+03
  5.810083e+00    4.043347e+03
  5.863087e+00    4.180908e+03
  5.916091e+00    4.692293e+03
  5.969095e+00    5.115027e+03
  6.022099e+00    4.597052e+03
  6.075103e+00    4.056440e+03
  6.128107e+00    3.928867e+03
  6.181111e+00    4.074157e+03
  6.234115e+00    4.133629e+03
  6.287120e+00    3.969413e+03
  6.340124e+00    3.812313e+03
  6.393128e+00    3.669543e+03
  6.446132e+00    3.497713e+03
  6.499136e+00    3.430381e+03
  6.552140e+00    3.516930e+03
  6.605144e+00    3.655232e+03
  6.658148e+00    3.883055e+03
  6.711152e+00    4.245960e+03
  6.764156e+00    4.188175e+03
  6.817161e+00    3.732290e+03
  6.870165e+00    3.437183e+03
  6.923169e+00    3.399515e+03
  6.976173e+00    3.398794e+03
  7.029177e+00    3.323306e+03
  7.082181e+00    3.310757e+03
  7.135185e+00    3.234592e+03
  7.188189e+00    3.131965e+03
  7.241193e+00    3.104195e+03
  7.294197e+00    3.186956e+03
  7.347202e+00    3.387186e+03
  7.400206e+00    3.583107e+03
  7.453210e+00    3.528498e+03
  7.506214e+00    3.509117e+03
  7.559218e+00    3.824652e+03
  7.612222e+00    4.136738e+03
  7.665226e+00    3.915482e+03
  7.718230e+00    3.773918e+03
  7.771234e+00    3.802589e+03
  7.824239e+00    3.635906e+03
  7.877243e+00    3.470803e+03
  7.930247e+00    3.442289e+03
  7.983251e+00    3.566054e+03
  8.036255e+00    3.650152e+03
  8.089259e+00    3.466383e+03
  8.142263e+00    3.214154e+03
  8.195267e+00    3.071971e+03
  8.248271e+00    3.012760e+03
  8.301275e+00    2.971286e+03
  8.354280e+00    2.937066e+03
  8.407284e+00    2.914894e+03
  8.460288e+00    2.930644e+03
  8.513292e+00    2.951045e+03
  8.566296e+00    2.985956e+03
  8.619300e+00    2.986388e+03
  8.672304e+00    2.945400e+03
  8.725308e+00    2.969151e+03
  8.778312e+00    3.019758e+03
  8.831316e+00    2.976810e+03
  8.884321e+00    2.915476e+03
  8.937325e+00    2.903507e+03
  8.990329e+00    2.919473e+03
  9.043333e+00    2.927840e+03
  9.096337e+00    2.959906e+03
  9.149341e+00    3.005512e+03
  9.202345e+00    2.940646e+03
  9.255349e+00    2.818171e+03
  9.308353e+00    2.746480e+03
  9.361357e+00    2.692944e+03
  9.414362e+00    2.650091e+03
  9.467366e+00    2.674652e+03
  9.520370e+00    2.731414e+03
  9.573374e+00    2.787911e+03
  9.626378e+00    2.848207e+03
  9.679382e+00    2.854990e+03
  9.732386e+00    2.812213e+03
  9.785390e+00    2.809728e+03
  9.838394e+00    2.800426e+03
  9.891398e+00    2.733416e+03
  9.944403e+00    2.685949e+03
  9.997407e+00    2.693967e+03
  1.005041e+01    2.729914e+03
  1.010341e+01    2.763016e+03
  1.015642e+01    2.770066e+03
  1.020942e+01    2.681563e+03
  1.026243e+01    2.574523e+03
  1.031543e+01    2.525842e+03
  1.036844e+01    2.518586e+03
  1.042144e+01    2.506286e+03
  1.047444e+01    2.519500e+03
  1.052745e+01    2.541757e+03
  1.058045e+01    2.565368e+03
  1.063346e+01    2.551799e+03
  1.068646e+01    2.519893e+03
  1.073946e+01    2.498769e+03
  1.079247e+01    2.483393e+03
  1.084547e+01    2.460898e+03
  1.089848e+01    2.474264e+03
  1.095148e+01    2.518763e+03
  1.100448e+01    2.575458e+03
  1.105749e+01    2.595407e+03
  1.111049e+01    2.547495e+03
  1.116350e+01    2.478148e+03
  1.121650e+01    2.438033e+03
  1.126951e+01    2.419500e+03
  1.132251e+01    2.423946e+03
  1.137551e+01    2.446137e+03
  1.142852e+01    2.489297e+03
  1.148152e+01    2.520499e+03
  1.153453e+01    2.541024e+03
  1.158753e+01    2.567210e+03
  1.164053e+01    2.550834e+03
  1.169354e+01    2.490798e+03
  1.174654e+01    2.472071e+03
  1.179955e+01    2.458795e+03
  1.185255e+01    2.475385e+03
  1.190555e+01    2.466684e+03
  1.195856e+01    2.424745e+03
  1.201156e+01    2.372750e+03
  1.206457e+01    2.340507e+03
  1.211757e+01    2.345058e+03
  1.217057e+01    2.365401e+03
  1.222358e+01    2.399127e+03
  1.227658e+01    2.424871e+03
  1.232959e+01    2.411386e+03
  1.238259e+01    2.369760e+03
  1.243560e+01    2.344762e+03
  1.248860e+01    2.331048e+03
  1.254160e+01    2.334773e+03
  1.259461e+01    2.343209e+03
  1.264761e+01    2.345449e+03
  1.270062e+01    2.332226e+03
  1.275362e+01    2.309977e+03
  1.280662e+01    2.293806e+03
  1.285963e+01    2.283524e+03
  1.291263e+01    2.271844e+03
  1.296564e+01    2.275767e+03
  1.301864e+01    2.284918e+03
  1.307164e+01    2.292131e+03
  1.312465e+01    2.297656e+03
  1.317765e+01    2.300180e+03
  1.323066e+01    2.281364e+03
  1.328366e+01    2.282405e+03
  1.333667e+01    2.303979e+03
  1.338967e+01    2.329972e+03
  1.344267e+01    2.339416e+03
  1.349568e+01    2.296336e+03
  1.354868e+01    2.257509e+03
  1.360169e+01    2.236746e+03
  1.365469e+01    2.232213e+03
  1.370769e+01    2.243018e+03
  1.376070e+01    2.242394e+03
  1.381370e+01    2.231150e+03
  1.386671e+01    2.209791e+03
  1.391971e+01    2.190020e+03
  1.397271e+01    2.183756e+03
  1.402572e+01    2.182928e+03
  1.407872e+01    2.184449e+03
  1.413173e+01    2.180029e+03
  1.418473e+01    2.168653e+03
  1.423773e+01    2.151522e+03
  1.429074e+01    2.137572e+03
  1.434374e+01    2.140664e+03
  1.439675e+01    2.140140e+03
  1.444975e+01    2.142981e+03
  1.450276e+01    2.136058e+03
  1.455576e+01    2.122376e+03
  1.460876e+01    2.115248e+03
  1.466177e+01    2.108316e+03
  1.471477e+01    2.111562e+03
  1.476778e+01    2.115748e+03
  1.482078e+01    2.109047e+03
  1.487378e+01    2.094115e+03
  1.492679e+01    2.082469e+03
  1.497979e+01    2.076388e+03
  1.503280e+01    2.076513e+03
  1.508580e+01    2.080531e+03
  1.513880e+01    2.082407e+03
  1.519181e+01    2.089317e+03
  1.524481e+01    2.116266e+03
  1.529782e+01    2.105701e+03
  1.535082e+01    2.106927e+03
  1.540382e+01    2.108336e+03
  1.545683e+01    2.095805e+03
  1.550983e+01    2.089686e+03
  1.556284e+01    2.078517e+03
  1.561584e+01    2.071965e+03
  1.566885e+01    2.075395e+03
  1.572185e+01    2.080643e+03
  1.577485e+01    2.085000e+03
  1.582786e+01    2.079682e+03
  1.588086e+01    2.069328e+03
  1.593387e+01    2.060749e+03
  1.598687e+01    2.054710e+03
  1.603987e+01    2.042319e+03
  1.609288e+01    2.029602e+03
  1.614588e+01    2.020501e+03
  1.619889e+01    2.021345e+03
  1.625189e+01    2.026005e+03
  1.630489e+01    2.023982e+03
  1.635790e+01    2.018266e+03
  1.641090e+01    2.014375e+03
  1.646391e+01    2.010646e+03
  1.651691e+01    2.017959e+03
  1.656992e+01    2.022508e+03
  1.662292e+01    2.020779e+03
  1.667592e+01    2.017291e+03
  1.672893e+01    2.007564e+03
  1.678193e+01    2.004346e+03
  1.683494e+01    2.002872e+03
  1.688794e+01    2.003613e+03
  1.694094e+01    2.005578e+03
  1.699395e+01    2.004227e+03
  1.704695e+01    2.001918e+03
  1.709996e+01    2.001185e+03
  1.715296e+01    1.998190e+03
  1.720596e+01    1.993699e+03
  1.725897e+01    1.984344e+03
  1.731197e+01    1.976498e+03
  1.736498e+01    1.968390e+03
  1.741798e+01    1.966841e+03
  1.747098e+01    1.966443e+03
  1.752399e+01    1.962546e+03
  1.757699e+01    1.958174e+03
  1.763000e+01    1.957779e+03
  1.768300e+01    1.958895e+03
  1.773601e+01    1.957545e+03
  1.778901e+01    1.951982e+03
  1.784201e+01    1.945054e+03
  1.789502e+01    1.945954e+03
  1.794802e+01    1.941289e+03
  1.800103e+01    1.940258e+03
  1.805403e+01    1.938018e+03
  1.810703e+01    1.927456e+03
  1.816004e+01    1.919920e+03
  1.821304e+01    1.915396e+03
  1.826605e+01    1.917621e+03
  1.831905e+01    1.907279e+03
  1.837205e+01    1.901925e+03
  1.842506e+01    1.899895e+03
  1.847806e+01    1.899685e+03
  1.853107e+01    1.898094e+03
  1.858407e+01    1.894280e+03
  1.863708e+01    1.896149e+03
  1.869008e+01    1.913055e+03
  1.874308e+01    1.904411e+03
  1.879609e+01    1.899463e+03
  1.884909e+01    1.893269e+03
  1.890210e+01    1.892194e+03
  1.895510e+01    1.887108e+03
  1.900810e+01    1.887639e+03
  1.906111e+01    1.883052e+03
  1.911411e+01    1.877879e+03
  1.916712e+01    1.874522e+03
  1.922012e+01    1.873536e+03
  1.927312e+01    1.866951e+03
  1.932613e+01    1.864739e+03
  1.937913e+01    1.858435e+03
  1.943214e+01    1.854993e+03
  1.948514e+01    1.850564e+03
  1.953814e+01    1.847296e+03
  1.959115e+01    1.843635e+03
  1.964415e+01    1.837437e+03
  1.969716e+01    1.835801e+03
  1.975016e+01    1.831591e+03
  1.980317e+01    1.828655e+03
  1.985617e+01    1.822732e+03
  1.990917e+01    1.818437e+03
  1.996218e+01    1.816074e+03
  2.001518e+01    1.811698e+03
  2.006819e+01    1.806817e+03
  2.012119e+01    1.802002e+03
  2.017419e+01    1.799197e+03
  2.022720e+01    1.793910e+03
  2.028020e+01    1.787999e+03
  2.033321e+01    1.780537e+03
  2.038621e+01    1.774016e+03
  2.043921e+01    1.770432e+03
  2.049222e+01    1.765929e+03
  2.054522e+01    1.759552e+03
  2.059823e+01    1.756253e+03
  2.065123e+01    1.750849e+03
  2.070424e+01    1.747522e+03
  2.075724e+01    1.743711e+03
  2.081024e+01    1.752102e+03
  2.086325e+01    1.743262e+03
  2.091625e+01    1.729472e+03
  2.096926e+01    1.717238e+03
  2.102226e+01    1.706333e+03
  2.107526e+01    1.698303e+03
  2.112827e+01    1.685619e+03
  2.118127e+01    1.675720e+03
  2.123428e+01    1.665560e+03
  2.128728e+01    1.654866e+03
  2.134028e+01    1.645778e+03
  2.139329e+01    1.633954e+03
  2.144629e+01    1.625212e+03
  2.149930e+01    1.618202e+03
  2.155230e+01    1.610167e+03
  2.160530e+01    1.605007e+03
  2.165831e+01    1.594058e+03
  2.171131e+01    1.588117e+03
  2.176432e+01    1.582296e+03
  2.181732e+01    1.572840e+03
  2.187033e+01    1.564067e+03
  2.192333e+01    1.555882e+03
  2.197633e+01    1.548173e+03
  2.202934e+01    1.540402e+03
  2.208234e+01    1.527041e+03
  2.213535e+01    1.519278e+03
  2.218835e+01    1.509204e+03
  2.224135e+01    1.501567e+03
  2.229436e+01    1.492780e+03
  2.234736e+01    1.486378e+03
  2.240037e+01    1.475184e+03
  2.245337e+01    1.467373e+03
  2.250637e+01    1.461864e+03
  2.255938e+01    1.454300e+03
  2.261238e+01    1.453478e+03
  2.266539e+01    1.454107e+03
  2.271839e+01    1.455518e+03
  2.277140e+01    1.453719e+03
  2.282440e+01    1.454701e+03
  2.287740e+01    1.451512e+03
  2.293041e+01    1.452134e+03
  2.298341e+01    1.449185e+03
  2.303642e+01    1.447966e+03
  2.308942e+01    1.444953e+03
  2.314242e+01    1.442934e+03
  2.319543e+01    1.438780e+03
  2.324843e+01    1.432944e+03
  2.330144e+01    1.431314e+03
  2.335444e+01    1.427821e+03
  2.340744e+01    1.428951e+03
  2.346045e+01    1.428025e+03
  2.351345e+01    1.423816e+03
  2.356646e+01    1.420066e+03
  2.361946e+01    1.421166e+03
  2.367246e+01    1.418506e+03
  2.372547e+01    1.414764e+03
  2.377847e+01    1.409915e+03
  2.383148e+01    1.405636e+03
  2.388448e+01    1.401997e+03
  2.393749e+01    1.398471e+03
  2.399049e+01    1.399595e+03
  2.404349e+01    1.398769e+03
  2.409650e+01    1.397757e+03
  2.414950e+01    1.391458e+03
  2.420251e+01    1.387328e+03
  2.425551e+01    1.385256e+03
  2.430851e+01    1.381517e+03
  2.436152e+01    1.375727e+03
  2.441452e+01    1.370531e+03
  2.446753e+01    1.368920e+03
  2.452053e+01    1.362821e+03
  2.457353e+01    1.358591e+03
  2.462654e+01    1.354273e+03
  2.467954e+01    1.345814e+03
  2.473255e+01    1.337543e+03
  2.478555e+01    1.327026e+03
  2.483855e+01    1.315063e+03
  2.489156e+01    1.309768e+03
  2.494456e+01    1.298051e+03
  2.499757e+01    1.289309e+03
  2.505057e+01    1.277503e+03
  2.510358e+01    1.269961e+03
  2.515658e+01    1.264055e+03
  2.520958e+01    1.259721e+03
  2.526259e+01    1.251645e+03
  2.531559e+01    1.245214e+03
  2.536860e+01    1.234479e+03
  2.542160e+01    1.229884e+03
  2.547460e+01    1.217351e+03
  2.552761e+01    1.206165e+03
  2.558061e+01    1.200705e+03
  2.563362e+01    1.200527e+03
  2.568662e+01    1.187055e+03
  2.573962e+01    1.178549e+03
  2.579263e+01    1.170769e+03
  2.584563e+01    1.160223e+03
  2.589864e+01    1.157349e+03
  2.595164e+01    1.152553e+03
  2.600465e+01    1.152559e+03
  2.605765e+01    1.148554e+03
  2.611065e+01    1.148146e+03
  2.616366e+01    1.143814e+03
  2.621666e+01    1.133678e+03
  2.626967e+01    1.117417e+03
  2.632267e+01    1.124515e+03
  2.637567e+01    1.114272e+03
  2.642868e+01    1.083083e+03
  2.648168e+01    1.103800e+03
