# == pyFAI calibration ==
# Distance Sample to Detector: 0.2945755399789714 m
# PONI: 2.880e-01, 2.450e-01 m
# Rotations: -0.007291 -0.010887 -0.000000 rad
# 
# == Fit2d calibration ==
# Distance Sample-beamCenter: 294.601 mm
# Center: x=1437.174, y=1655.617 pix
# Tilt: 0.751 deg  TiltPlanRot: -56.193 deg
# 
# Detector Pilatus CdTe 2M	 PixelSize= 1.720e-04, 1.720e-04 m
#    Detector has a mask: True 
#    Detector has a dark current: False 
#    detector has a flat field: False 
# 
# Wavelength: 2.0732883349524408e-11 m
# Mask applied: from detector
# Dark current applied: False
# Flat field applied: False
# Polarization factor: 0.9
# Normalization factor: 1.0
# --> /gpfs/current/raw/FMue_2/FMue_2_20231024_120911_00209.dat
#        q_A^-1             I 
  3.263564e-02             nan
  8.563974e-02             nan
  1.386438e-01             nan
  1.916479e-01             nan
  2.446520e-01    3.832043e+04
  2.976561e-01    2.967447e+04
  3.506602e-01    1.585342e+04
  4.036643e-01    1.114187e+04
  4.566684e-01    9.529051e+03
  5.096725e-01    9.119522e+03
  5.626766e-01    8.806252e+03
  6.156807e-01    8.451604e+03
  6.686848e-01    8.269254e+03
  7.216890e-01    8.309386e+03
  7.746931e-01    8.294729e+03
  8.276972e-01    8.373862e+03
  8.807013e-01    8.427168e+03
  9.337054e-01    8.581562e+03
  9.867095e-01    8.718587e+03
  1.039714e+00    8.979633e+03
  1.092718e+00    9.311154e+03
  1.145722e+00    9.795201e+03
  1.198726e+00    1.037901e+04
  1.251730e+00    1.107057e+04
  1.304734e+00    1.195766e+04
  1.357738e+00    1.281702e+04
  1.410742e+00    1.350935e+04
  1.463746e+00    1.384198e+04
  1.516750e+00    1.380560e+04
  1.569755e+00    1.332799e+04
  1.622759e+00    1.266856e+04
  1.675763e+00    1.181774e+04
  1.728767e+00    1.092550e+04
  1.781771e+00    1.013998e+04
  1.834775e+00    9.479541e+03
  1.887779e+00    8.929004e+03
  1.940783e+00    8.578146e+03
  1.993787e+00    8.282537e+03
  2.046791e+00    8.116876e+03
  2.099796e+00    8.068268e+03
  2.152800e+00    8.084542e+03
  2.205804e+00    8.173645e+03
  2.258808e+00    8.249572e+03
  2.311812e+00    8.287851e+03
  2.364816e+00    8.385552e+03
  2.417820e+00    8.727674e+03
  2.470824e+00    9.490159e+03
  2.523828e+00    1.111007e+04
  2.576832e+00    1.288145e+04
  2.629837e+00    1.077923e+04
  2.682841e+00    8.406406e+03
  2.735845e+00    7.737540e+03
  2.788849e+00    7.111740e+03
  2.841853e+00    6.856949e+03
  2.894857e+00    7.920078e+03
  2.947861e+00    1.137186e+04
  3.000865e+00    1.256827e+04
  3.053869e+00    9.207563e+03
  3.106874e+00    8.008892e+03
  3.159878e+00    8.598239e+03
  3.212882e+00    7.784410e+03
  3.265886e+00    5.962986e+03
  3.318890e+00    5.103729e+03
  3.371894e+00    4.876206e+03
  3.424898e+00    4.787542e+03
  3.477902e+00    4.753063e+03
  3.530906e+00    4.720445e+03
  3.583910e+00    4.697261e+03
  3.636915e+00    4.717538e+03
  3.689919e+00    4.763606e+03
  3.742923e+00    4.841045e+03
  3.795927e+00    4.963372e+03
  3.848931e+00    5.108832e+03
  3.901935e+00    5.298271e+03
  3.954939e+00    5.530199e+03
  4.007943e+00    5.885769e+03
  4.060947e+00    6.403654e+03
  4.113951e+00    7.246096e+03
  4.166956e+00    9.069472e+03
  4.219960e+00    1.091902e+04
  4.272964e+00    9.106950e+03
  4.325968e+00    7.145480e+03
  4.378972e+00    7.376314e+03
  4.431976e+00    9.457874e+03
  4.484980e+00    1.056968e+04
  4.537984e+00    8.440222e+03
  4.590988e+00    6.410347e+03
  4.643992e+00    5.676566e+03
  4.696997e+00    5.492233e+03
  4.750001e+00    5.462618e+03
  4.803005e+00    5.545736e+03
  4.856009e+00    5.838276e+03
  4.909013e+00    6.412473e+03
  4.962017e+00    6.573255e+03
  5.015021e+00    5.993019e+03
  5.068025e+00    5.690057e+03
  5.121029e+00    5.870585e+03
  5.174033e+00    5.910074e+03
  5.227038e+00    5.267745e+03
  5.280042e+00    4.682415e+03
  5.333046e+00    4.383802e+03
  5.386050e+00    4.227541e+03
  5.439054e+00    4.221932e+03
  5.492058e+00    4.183252e+03
  5.545062e+00    3.889698e+03
  5.598066e+00    3.663167e+03
  5.651070e+00    3.569422e+03
  5.704074e+00    3.542964e+03
  5.757079e+00    3.550684e+03
  5.810083e+00    3.595144e+03
  5.863087e+00    3.692562e+03
  5.916091e+00    3.890929e+03
  5.969095e+00    4.067204e+03
  6.022099e+00    4.014929e+03
  6.075103e+00    3.900962e+03
  6.128107e+00    3.828731e+03
  6.181111e+00    3.805469e+03
  6.234115e+00    3.877552e+03
  6.287120e+00    4.002525e+03
  6.340124e+00    4.046015e+03
  6.393128e+00    4.048482e+03
  6.446132e+00    4.067525e+03
  6.499136e+00    4.095773e+03
  6.552140e+00    4.015555e+03
  6.605144e+00    4.048455e+03
  6.658148e+00    4.138623e+03
  6.711152e+00    3.942593e+03
  6.764156e+00    3.652041e+03
  6.817161e+00    3.480437e+03
  6.870165e+00    3.366703e+03
  6.923169e+00    3.300447e+03
  6.976173e+00    3.328984e+03
  7.029177e+00    3.386849e+03
  7.082181e+00    3.429021e+03
  7.135185e+00    3.413447e+03
  7.188189e+00    3.413921e+03
  7.241193e+00    3.513673e+03
  7.294197e+00    3.636087e+03
  7.347202e+00    3.544299e+03
  7.400206e+00    3.373363e+03
  7.453210e+00    3.288468e+03
  7.506214e+00    3.270955e+03
  7.559218e+00    3.275221e+03
  7.612222e+00    3.325294e+03
  7.665226e+00    3.477442e+03
  7.718230e+00    3.702189e+03
  7.771234e+00    3.684960e+03
  7.824239e+00    3.416993e+03
  7.877243e+00    3.214238e+03
  7.930247e+00    3.106884e+03
  7.983251e+00    3.064156e+03
  8.036255e+00    3.057448e+03
  8.089259e+00    3.059291e+03
  8.142263e+00    3.070725e+03
  8.195267e+00    3.078805e+03
  8.248271e+00    3.079849e+03
  8.301275e+00    3.073313e+03
  8.354280e+00    3.079832e+03
  8.407284e+00    3.092007e+03
  8.460288e+00    3.077676e+03
  8.513292e+00    3.039217e+03
  8.566296e+00    3.024377e+03
  8.619300e+00    3.018569e+03
  8.672304e+00    3.024918e+03
  8.725308e+00    3.050025e+03
  8.778312e+00    3.076032e+03
  8.831316e+00    3.086520e+03
  8.884321e+00    3.088195e+03
  8.937325e+00    3.068514e+03
  8.990329e+00    2.988938e+03
  9.043333e+00    2.881273e+03
  9.096337e+00    2.805849e+03
  9.149341e+00    2.773891e+03
  9.202345e+00    2.756167e+03
  9.255349e+00    2.747563e+03
  9.308353e+00    2.746487e+03
  9.361357e+00    2.755693e+03
  9.414362e+00    2.757826e+03
  9.467366e+00    2.753728e+03
  9.520370e+00    2.717902e+03
  9.573374e+00    2.684277e+03
  9.626378e+00    2.665037e+03
  9.679382e+00    2.665464e+03
  9.732386e+00    2.668663e+03
  9.785390e+00    2.669783e+03
  9.838394e+00    2.660938e+03
  9.891398e+00    2.653822e+03
  9.944403e+00    2.633563e+03
  9.997407e+00    2.611717e+03
  1.005041e+01    2.581885e+03
  1.010341e+01    2.542507e+03
  1.015642e+01    2.521198e+03
  1.020942e+01    2.510454e+03
  1.026243e+01    2.501975e+03
  1.031543e+01    2.514187e+03
  1.036844e+01    2.531321e+03
  1.042144e+01    2.528600e+03
  1.047444e+01    2.532769e+03
  1.052745e+01    2.527754e+03
  1.058045e+01    2.533058e+03
  1.063346e+01    2.530416e+03
  1.068646e+01    2.521352e+03
  1.073946e+01    2.505629e+03
  1.079247e+01    2.491414e+03
  1.084547e+01    2.476953e+03
  1.089848e+01    2.474230e+03
  1.095148e+01    2.474427e+03
  1.100448e+01    2.470735e+03
  1.105749e+01    2.470137e+03
  1.111049e+01    2.472706e+03
  1.116350e+01    2.462009e+03
  1.121650e+01    2.446993e+03
  1.126951e+01    2.429579e+03
  1.132251e+01    2.418107e+03
  1.137551e+01    2.408141e+03
  1.142852e+01    2.402904e+03
  1.148152e+01    2.389491e+03
  1.153453e+01    2.376572e+03
  1.158753e+01    2.371208e+03
  1.164053e+01    2.366052e+03
  1.169354e+01    2.368681e+03
  1.174654e+01    2.396629e+03
  1.179955e+01    2.393823e+03
  1.185255e+01    2.387201e+03
  1.190555e+01    2.373357e+03
  1.195856e+01    2.363196e+03
  1.201156e+01    2.355158e+03
  1.206457e+01    2.348026e+03
  1.211757e+01    2.353680e+03
  1.217057e+01    2.355339e+03
  1.222358e+01    2.352675e+03
  1.227658e+01    2.350622e+03
  1.232959e+01    2.348059e+03
  1.238259e+01    2.339883e+03
  1.243560e+01    2.338401e+03
  1.248860e+01    2.333884e+03
  1.254160e+01    2.332242e+03
  1.259461e+01    2.333349e+03
  1.264761e+01    2.327722e+03
  1.270062e+01    2.315758e+03
  1.275362e+01    2.304303e+03
  1.280662e+01    2.298293e+03
  1.285963e+01    2.289314e+03
  1.291263e+01    2.278885e+03
  1.296564e+01    2.268323e+03
  1.301864e+01    2.259444e+03
  1.307164e+01    2.251135e+03
  1.312465e+01    2.238435e+03
  1.317765e+01    2.233551e+03
  1.323066e+01    2.214049e+03
  1.328366e+01    2.208612e+03
  1.333667e+01    2.203867e+03
  1.338967e+01    2.198049e+03
  1.344267e+01    2.210027e+03
  1.349568e+01    2.203926e+03
  1.354868e+01    2.199174e+03
  1.360169e+01    2.188496e+03
  1.365469e+01    2.174347e+03
  1.370769e+01    2.167928e+03
  1.376070e+01    2.156323e+03
  1.381370e+01    2.148250e+03
  1.386671e+01    2.139999e+03
  1.391971e+01    2.134629e+03
  1.397271e+01    2.130335e+03
  1.402572e+01    2.124837e+03
  1.407872e+01    2.118328e+03
  1.413173e+01    2.111738e+03
  1.418473e+01    2.109553e+03
  1.423773e+01    2.103878e+03
  1.429074e+01    2.097125e+03
  1.434374e+01    2.096265e+03
  1.439675e+01    2.088007e+03
  1.444975e+01    2.086584e+03
  1.450276e+01    2.080085e+03
  1.455576e+01    2.075828e+03
  1.460876e+01    2.075512e+03
  1.466177e+01    2.071000e+03
  1.471477e+01    2.070505e+03
  1.476778e+01    2.072720e+03
  1.482078e+01    2.070810e+03
  1.487378e+01    2.066846e+03
  1.492679e+01    2.061204e+03
  1.497979e+01    2.056666e+03
  1.503280e+01    2.056989e+03
  1.508580e+01    2.052552e+03
  1.513880e+01    2.052534e+03
  1.519181e+01    2.055356e+03
  1.524481e+01    2.078120e+03
  1.529782e+01    2.059630e+03
  1.535082e+01    2.048743e+03
  1.540382e+01    2.043965e+03
  1.545683e+01    2.034762e+03
  1.550983e+01    2.039213e+03
  1.556284e+01    2.035091e+03
  1.561584e+01    2.029434e+03
  1.566885e+01    2.024500e+03
  1.572185e+01    2.022573e+03
  1.577485e+01    2.020954e+03
  1.582786e+01    2.015577e+03
  1.588086e+01    2.010646e+03
  1.593387e+01    2.009799e+03
  1.598687e+01    2.005801e+03
  1.603987e+01    1.998575e+03
  1.609288e+01    1.989002e+03
  1.614588e+01    1.983506e+03
  1.619889e+01    1.985233e+03
  1.625189e+01    1.990172e+03
  1.630489e+01    1.987914e+03
  1.635790e+01    1.981755e+03
  1.641090e+01    1.978688e+03
  1.646391e+01    1.972659e+03
  1.651691e+01    1.971653e+03
  1.656992e+01    1.965753e+03
  1.662292e+01    1.960127e+03
  1.667592e+01    1.960202e+03
  1.672893e+01    1.958289e+03
  1.678193e+01    1.958605e+03
  1.683494e+01    1.951400e+03
  1.688794e+01    1.952924e+03
  1.694094e+01    1.949721e+03
  1.699395e+01    1.947256e+03
  1.704695e+01    1.941471e+03
  1.709996e+01    1.937728e+03
  1.715296e+01    1.933709e+03
  1.720596e+01    1.931616e+03
  1.725897e+01    1.928412e+03
  1.731197e+01    1.925618e+03
  1.736498e+01    1.918653e+03
  1.741798e+01    1.917194e+03
  1.747098e+01    1.916420e+03
  1.752399e+01    1.913306e+03
  1.757699e+01    1.908708e+03
  1.763000e+01    1.903733e+03
  1.768300e+01    1.898848e+03
  1.773601e+01    1.895347e+03
  1.778901e+01    1.890995e+03
  1.784201e+01    1.884036e+03
  1.789502e+01    1.883852e+03
  1.794802e+01    1.876643e+03
  1.800103e+01    1.874806e+03
  1.805403e+01    1.872064e+03
  1.810703e+01    1.865410e+03
  1.816004e+01    1.863177e+03
  1.821304e+01    1.859865e+03
  1.826605e+01    1.864418e+03
  1.831905e+01    1.855099e+03
  1.837205e+01    1.850983e+03
  1.842506e+01    1.848872e+03
  1.847806e+01    1.845647e+03
  1.853107e+01    1.844098e+03
  1.858407e+01    1.842125e+03
  1.863708e+01    1.841180e+03
  1.869008e+01    1.857407e+03
  1.874308e+01    1.847648e+03
  1.879609e+01    1.842065e+03
  1.884909e+01    1.838212e+03
  1.890210e+01    1.834558e+03
  1.895510e+01    1.826337e+03
  1.900810e+01    1.825499e+03
  1.906111e+01    1.817646e+03
  1.911411e+01    1.810222e+03
  1.916712e+01    1.808605e+03
  1.922012e+01    1.803939e+03
  1.927312e+01    1.797199e+03
  1.932613e+01    1.794843e+03
  1.937913e+01    1.788175e+03
  1.943214e+01    1.783602e+03
  1.948514e+01    1.780156e+03
  1.953814e+01    1.774246e+03
  1.959115e+01    1.771029e+03
  1.964415e+01    1.763409e+03
  1.969716e+01    1.760940e+03
  1.975016e+01    1.757215e+03
  1.980317e+01    1.753768e+03
  1.985617e+01    1.747332e+03
  1.990917e+01    1.740542e+03
  1.996218e+01    1.736710e+03
  2.001518e+01    1.732287e+03
  2.006819e+01    1.724009e+03
  2.012119e+01    1.719466e+03
  2.017419e+01    1.714782e+03
  2.022720e+01    1.708932e+03
  2.028020e+01    1.701438e+03
  2.033321e+01    1.695822e+03
  2.038621e+01    1.690675e+03
  2.043921e+01    1.686231e+03
  2.049222e+01    1.682340e+03
  2.054522e+01    1.675267e+03
  2.059823e+01    1.671492e+03
  2.065123e+01    1.666016e+03
  2.070424e+01    1.661940e+03
  2.075724e+01    1.662058e+03
  2.081024e+01    1.669209e+03
  2.086325e+01    1.657672e+03
  2.091625e+01    1.641666e+03
  2.096926e+01    1.629310e+03
  2.102226e+01    1.617624e+03
  2.107526e+01    1.608347e+03
  2.112827e+01    1.597954e+03
  2.118127e+01    1.588075e+03
  2.123428e+01    1.579009e+03
  2.128728e+01    1.571907e+03
  2.134028e+01    1.562738e+03
  2.139329e+01    1.553716e+03
  2.144629e+01    1.544040e+03
  2.149930e+01    1.535839e+03
  2.155230e+01    1.526287e+03
  2.160530e+01    1.518177e+03
  2.165831e+01    1.509261e+03
  2.171131e+01    1.501935e+03
  2.176432e+01    1.496237e+03
  2.181732e+01    1.487617e+03
  2.187033e+01    1.477237e+03
  2.192333e+01    1.470722e+03
  2.197633e+01    1.462586e+03
  2.202934e+01    1.454137e+03
  2.208234e+01    1.443069e+03
  2.213535e+01    1.436407e+03
  2.218835e+01    1.426585e+03
  2.224135e+01    1.419566e+03
  2.229436e+01    1.411013e+03
  2.234736e+01    1.402788e+03
  2.240037e+01    1.392845e+03
  2.245337e+01    1.384008e+03
  2.250637e+01    1.377481e+03
  2.255938e+01    1.369707e+03
  2.261238e+01    1.373092e+03
  2.266539e+01    1.373584e+03
  2.271839e+01    1.374650e+03
  2.277140e+01    1.374809e+03
  2.282440e+01    1.372530e+03
  2.287740e+01    1.369940e+03
  2.293041e+01    1.370004e+03
  2.298341e+01    1.369116e+03
  2.303642e+01    1.368268e+03
  2.308942e+01    1.367782e+03
  2.314242e+01    1.364452e+03
  2.319543e+01    1.361311e+03
  2.324843e+01    1.355587e+03
  2.330144e+01    1.354595e+03
  2.335444e+01    1.351592e+03
  2.340744e+01    1.351346e+03
  2.346045e+01    1.351028e+03
  2.351345e+01    1.345467e+03
  2.356646e+01    1.342729e+03
  2.361946e+01    1.343147e+03
  2.367246e+01    1.343582e+03
  2.372547e+01    1.336446e+03
  2.377847e+01    1.331992e+03
  2.383148e+01    1.327409e+03
  2.388448e+01    1.324148e+03
  2.393749e+01    1.319080e+03
  2.399049e+01    1.317708e+03
  2.404349e+01    1.315318e+03
  2.409650e+01    1.309685e+03
  2.414950e+01    1.304361e+03
  2.420251e+01    1.296674e+03
  2.425551e+01    1.293409e+03
  2.430851e+01    1.287657e+03
  2.436152e+01    1.282982e+03
  2.441452e+01    1.275492e+03
  2.446753e+01    1.271673e+03
  2.452053e+01    1.263418e+03
  2.457353e+01    1.257000e+03
  2.462654e+01    1.256320e+03
  2.467954e+01    1.245349e+03
  2.473255e+01    1.237053e+03
  2.478555e+01    1.228297e+03
  2.483855e+01    1.214252e+03
  2.489156e+01    1.209199e+03
  2.494456e+01    1.200470e+03
  2.499757e+01    1.192060e+03
  2.505057e+01    1.182814e+03
  2.510358e+01    1.174953e+03
  2.515658e+01    1.170645e+03
  2.520958e+01    1.167484e+03
  2.526259e+01    1.156527e+03
  2.531559e+01    1.151779e+03
  2.536860e+01    1.147705e+03
  2.542160e+01    1.143406e+03
  2.547460e+01    1.137344e+03
  2.552761e+01    1.125708e+03
  2.558061e+01    1.124044e+03
  2.563362e+01    1.120170e+03
  2.568662e+01    1.110803e+03
  2.573962e+01    1.101883e+03
  2.579263e+01    1.096151e+03
  2.584563e+01    1.088288e+03
  2.589864e+01    1.084394e+03
  2.595164e+01    1.080501e+03
  2.600465e+01    1.080561e+03
  2.605765e+01    1.077395e+03
  2.611065e+01    1.072203e+03
  2.616366e+01    1.071155e+03
  2.621666e+01    1.065240e+03
  2.626967e+01    1.053636e+03
  2.632267e+01    1.052224e+03
  2.637567e+01    1.045262e+03
  2.642868e+01    1.030973e+03
  2.648168e+01    1.018064e+03
