# == pyFAI calibration ==
# Distance Sample to Detector: 0.2945755399789714 m
# PONI: 2.880e-01, 2.450e-01 m
# Rotations: -0.007291 -0.010887 -0.000000 rad
# 
# == Fit2d calibration ==
# Distance Sample-beamCenter: 294.601 mm
# Center: x=1437.174, y=1655.617 pix
# Tilt: 0.751 deg  TiltPlanRot: -56.193 deg
# 
# Detector Pilatus CdTe 2M	 PixelSize= 1.720e-04, 1.720e-04 m
#    Detector has a mask: True 
#    Detector has a dark current: False 
#    detector has a flat field: False 
# 
# Wavelength: 2.0732883349524408e-11 m
# Mask applied: from detector
# Dark current applied: False
# Flat field applied: False
# Polarization factor: 0.9
# Normalization factor: 1.0
# --> /gpfs/current/raw/FMue_2/FMue_2_20231024_120911_00378.dat
#        q_A^-1             I 
  3.263564e-02             nan
  8.563974e-02             nan
  1.386438e-01             nan
  1.916479e-01             nan
  2.446520e-01    3.878624e+04
  2.976561e-01    2.967954e+04
  3.506602e-01    1.580829e+04
  4.036643e-01    1.105942e+04
  4.566684e-01    9.398902e+03
  5.096725e-01    8.944328e+03
  5.626766e-01    8.640736e+03
  6.156807e-01    8.285096e+03
  6.686848e-01    8.128521e+03
  7.216890e-01    8.173447e+03
  7.746931e-01    8.173813e+03
  8.276972e-01    8.258246e+03
  8.807013e-01    8.327907e+03
  9.337054e-01    8.467563e+03
  9.867095e-01    8.624229e+03
  1.039714e+00    8.883323e+03
  1.092718e+00    9.198850e+03
  1.145722e+00    9.675585e+03
  1.198726e+00    1.026846e+04
  1.251730e+00    1.095698e+04
  1.304734e+00    1.184699e+04
  1.357738e+00    1.271162e+04
  1.410742e+00    1.339807e+04
  1.463746e+00    1.373036e+04
  1.516750e+00    1.367410e+04
  1.569755e+00    1.318941e+04
  1.622759e+00    1.253228e+04
  1.675763e+00    1.166224e+04
  1.728767e+00    1.079178e+04
  1.781771e+00    9.972979e+03
  1.834775e+00    9.314746e+03
  1.887779e+00    8.744758e+03
  1.940783e+00    8.364497e+03
  1.993787e+00    8.040618e+03
  2.046791e+00    7.847325e+03
  2.099796e+00    7.778459e+03
  2.152800e+00    7.776451e+03
  2.205804e+00    7.807418e+03
  2.258808e+00    7.792089e+03
  2.311812e+00    7.734189e+03
  2.364816e+00    7.730954e+03
  2.417820e+00    7.962757e+03
  2.470824e+00    8.528611e+03
  2.523828e+00    9.439656e+03
  2.576832e+00    1.006945e+04
  2.629837e+00    9.201734e+03
  2.682841e+00    7.952272e+03
  2.735845e+00    7.429523e+03
  2.788849e+00    6.810647e+03
  2.841853e+00    6.507213e+03
  2.894857e+00    7.002925e+03
  2.947861e+00    8.641685e+03
  3.000865e+00    1.171611e+04
  3.053869e+00    1.365908e+04
  3.106874e+00    1.169853e+04
  3.159878e+00    1.002953e+04
  3.212882e+00    8.525330e+03
  3.265886e+00    6.538341e+03
  3.318890e+00    5.665137e+03
  3.371894e+00    5.547017e+03
  3.424898e+00    5.849266e+03
  3.477902e+00    6.519631e+03
  3.530906e+00    6.540070e+03
  3.583910e+00    5.667648e+03
  3.636915e+00    5.069983e+03
  3.689919e+00    4.891225e+03
  3.742923e+00    4.879875e+03
  3.795927e+00    4.938368e+03
  3.848931e+00    5.033619e+03
  3.901935e+00    5.194528e+03
  3.954939e+00    5.410614e+03
  4.007943e+00    5.717011e+03
  4.060947e+00    6.072365e+03
  4.113951e+00    6.456669e+03
  4.166956e+00    6.980253e+03
  4.219960e+00    7.559673e+03
  4.272964e+00    7.298213e+03
  4.325968e+00    6.834141e+03
  4.378972e+00    7.378494e+03
  4.431976e+00    9.461056e+03
  4.484980e+00    1.047355e+04
  4.537984e+00    8.270235e+03
  4.590988e+00    6.227153e+03
  4.643992e+00    5.494238e+03
  4.696997e+00    5.297948e+03
  4.750001e+00    5.252877e+03
  4.803005e+00    5.297124e+03
  4.856009e+00    5.511729e+03
  4.909013e+00    6.029782e+03
  4.962017e+00    6.747441e+03
  5.015021e+00    6.601781e+03
  5.068025e+00    5.882189e+03
  5.121029e+00    5.536715e+03
  5.174033e+00    5.336608e+03
  5.227038e+00    5.008484e+03
  5.280042e+00    4.672261e+03
  5.333046e+00    4.429417e+03
  5.386050e+00    4.289848e+03
  5.439054e+00    4.289923e+03
  5.492058e+00    4.253003e+03
  5.545062e+00    3.972075e+03
  5.598066e+00    3.768238e+03
  5.651070e+00    3.727265e+03
  5.704074e+00    3.810811e+03
  5.757079e+00    4.129116e+03
  5.810083e+00    4.724864e+03
  5.863087e+00    4.801548e+03
  5.916091e+00    4.329801e+03
  5.969095e+00    4.123530e+03
  6.022099e+00    4.125115e+03
  6.075103e+00    4.217316e+03
  6.128107e+00    4.109468e+03
  6.181111e+00    3.870272e+03
  6.234115e+00    3.820272e+03
  6.287120e+00    3.881112e+03
  6.340124e+00    3.863469e+03
  6.393128e+00    3.785426e+03
  6.446132e+00    3.684412e+03
  6.499136e+00    3.631956e+03
  6.552140e+00    3.595607e+03
  6.605144e+00    3.590151e+03
  6.658148e+00    3.594276e+03
  6.711152e+00    3.532984e+03
  6.764156e+00    3.453799e+03
  6.817161e+00    3.368611e+03
  6.870165e+00    3.286361e+03
  6.923169e+00    3.237046e+03
  6.976173e+00    3.279744e+03
  7.029177e+00    3.354260e+03
  7.082181e+00    3.374259e+03
  7.135185e+00    3.304896e+03
  7.188189e+00    3.234635e+03
  7.241193e+00    3.227301e+03
  7.294197e+00    3.260566e+03
  7.347202e+00    3.264189e+03
  7.400206e+00    3.251567e+03
  7.453210e+00    3.249500e+03
  7.506214e+00    3.278671e+03
  7.559218e+00    3.337759e+03
  7.612222e+00    3.476458e+03
  7.665226e+00    3.703021e+03
  7.718230e+00    3.878779e+03
  7.771234e+00    3.816190e+03
  7.824239e+00    3.639035e+03
  7.877243e+00    3.493235e+03
  7.930247e+00    3.292498e+03
  7.983251e+00    3.157192e+03
  8.036255e+00    3.102107e+03
  8.089259e+00    3.080747e+03
  8.142263e+00    3.074286e+03
  8.195267e+00    3.065991e+03
  8.248271e+00    3.051027e+03
  8.301275e+00    3.029254e+03
  8.354280e+00    3.014919e+03
  8.407284e+00    3.005699e+03
  8.460288e+00    3.002319e+03
  8.513292e+00    3.003135e+03
  8.566296e+00    3.043389e+03
  8.619300e+00    3.066465e+03
  8.672304e+00    3.036778e+03
  8.725308e+00    2.989484e+03
  8.778312e+00    2.958369e+03
  8.831316e+00    2.946687e+03
  8.884321e+00    2.950486e+03
  8.937325e+00    2.946373e+03
  8.990329e+00    2.913246e+03
  9.043333e+00    2.864590e+03
  9.096337e+00    2.851143e+03
  9.149341e+00    2.844192e+03
  9.202345e+00    2.786931e+03
  9.255349e+00    2.727071e+03
  9.308353e+00    2.694049e+03
  9.361357e+00    2.676487e+03
  9.414362e+00    2.660150e+03
  9.467366e+00    2.661786e+03
  9.520370e+00    2.643208e+03
  9.573374e+00    2.616758e+03
  9.626378e+00    2.602290e+03
  9.679382e+00    2.595934e+03
  9.732386e+00    2.596467e+03
  9.785390e+00    2.594213e+03
  9.838394e+00    2.590992e+03
  9.891398e+00    2.605938e+03
  9.944403e+00    2.605701e+03
  9.997407e+00    2.590177e+03
  1.005041e+01    2.564357e+03
  1.010341e+01    2.520336e+03
  1.015642e+01    2.501083e+03
  1.020942e+01    2.492610e+03
  1.026243e+01    2.490595e+03
  1.031543e+01    2.514987e+03
  1.036844e+01    2.570297e+03
  1.042144e+01    2.592110e+03
  1.047444e+01    2.582737e+03
  1.052745e+01    2.562833e+03
  1.058045e+01    2.544287e+03
  1.063346e+01    2.514479e+03
  1.068646e+01    2.489154e+03
  1.073946e+01    2.466934e+03
  1.079247e+01    2.454268e+03
  1.084547e+01    2.442892e+03
  1.089848e+01    2.442264e+03
  1.095148e+01    2.439785e+03
  1.100448e+01    2.430765e+03
  1.105749e+01    2.427467e+03
  1.111049e+01    2.427216e+03
  1.116350e+01    2.415326e+03
  1.121650e+01    2.403077e+03
  1.126951e+01    2.392116e+03
  1.132251e+01    2.383147e+03
  1.137551e+01    2.374517e+03
  1.142852e+01    2.371129e+03
  1.148152e+01    2.372013e+03
  1.153453e+01    2.371294e+03
  1.158753e+01    2.366576e+03
  1.164053e+01    2.363861e+03
  1.169354e+01    2.362840e+03
  1.174654e+01    2.383231e+03
  1.179955e+01    2.369519e+03
  1.185255e+01    2.362089e+03
  1.190555e+01    2.342451e+03
  1.195856e+01    2.328192e+03
  1.201156e+01    2.316883e+03
  1.206457e+01    2.312265e+03
  1.211757e+01    2.314030e+03
  1.217057e+01    2.315715e+03
  1.222358e+01    2.312407e+03
  1.227658e+01    2.309679e+03
  1.232959e+01    2.309740e+03
  1.238259e+01    2.304998e+03
  1.243560e+01    2.308386e+03
  1.248860e+01    2.309217e+03
  1.254160e+01    2.315347e+03
  1.259461e+01    2.313627e+03
  1.264761e+01    2.303949e+03
  1.270062e+01    2.289994e+03
  1.275362e+01    2.274670e+03
  1.280662e+01    2.265842e+03
  1.285963e+01    2.255505e+03
  1.291263e+01    2.246380e+03
  1.296564e+01    2.237194e+03
  1.301864e+01    2.233348e+03
  1.307164e+01    2.229672e+03
  1.312465e+01    2.223537e+03
  1.317765e+01    2.218521e+03
  1.323066e+01    2.198652e+03
  1.328366e+01    2.187566e+03
  1.333667e+01    2.179240e+03
  1.338967e+01    2.176212e+03
  1.344267e+01    2.190665e+03
  1.349568e+01    2.188918e+03
  1.354868e+01    2.179928e+03
  1.360169e+01    2.165196e+03
  1.365469e+01    2.149904e+03
  1.370769e+01    2.142464e+03
  1.376070e+01    2.130814e+03
  1.381370e+01    2.124721e+03
  1.386671e+01    2.114630e+03
  1.391971e+01    2.105992e+03
  1.397271e+01    2.104493e+03
  1.402572e+01    2.099955e+03
  1.407872e+01    2.093007e+03
  1.413173e+01    2.086644e+03
  1.418473e+01    2.082729e+03
  1.423773e+01    2.078437e+03
  1.429074e+01    2.072035e+03
  1.434374e+01    2.072545e+03
  1.439675e+01    2.066605e+03
  1.444975e+01    2.063600e+03
  1.450276e+01    2.059785e+03
  1.455576e+01    2.053255e+03
  1.460876e+01    2.050211e+03
  1.466177e+01    2.044423e+03
  1.471477e+01    2.042860e+03
  1.476778e+01    2.045608e+03
  1.482078e+01    2.043645e+03
  1.487378e+01    2.040043e+03
  1.492679e+01    2.034198e+03
  1.497979e+01    2.029384e+03
  1.503280e+01    2.028637e+03
  1.508580e+01    2.028533e+03
  1.513880e+01    2.024458e+03
  1.519181e+01    2.031854e+03
  1.524481e+01    2.054702e+03
  1.529782e+01    2.036724e+03
  1.535082e+01    2.026396e+03
  1.540382e+01    2.019788e+03
  1.545683e+01    2.009921e+03
  1.550983e+01    2.014356e+03
  1.556284e+01    2.011773e+03
  1.561584e+01    2.004445e+03
  1.566885e+01    2.001043e+03
  1.572185e+01    1.999655e+03
  1.577485e+01    1.996239e+03
  1.582786e+01    1.992836e+03
  1.588086e+01    1.988025e+03
  1.593387e+01    1.988328e+03
  1.598687e+01    1.985968e+03
  1.603987e+01    1.978162e+03
  1.609288e+01    1.969036e+03
  1.614588e+01    1.963673e+03
  1.619889e+01    1.964683e+03
  1.625189e+01    1.967509e+03
  1.630489e+01    1.963146e+03
  1.635790e+01    1.960390e+03
  1.641090e+01    1.955707e+03
  1.646391e+01    1.948521e+03
  1.651691e+01    1.946852e+03
  1.656992e+01    1.941602e+03
  1.662292e+01    1.936425e+03
  1.667592e+01    1.935821e+03
  1.672893e+01    1.932398e+03
  1.678193e+01    1.931316e+03
  1.683494e+01    1.926937e+03
  1.688794e+01    1.926272e+03
  1.694094e+01    1.923205e+03
  1.699395e+01    1.919212e+03
  1.704695e+01    1.914561e+03
  1.709996e+01    1.913127e+03
  1.715296e+01    1.909055e+03
  1.720596e+01    1.904004e+03
  1.725897e+01    1.903023e+03
  1.731197e+01    1.900644e+03
  1.736498e+01    1.893674e+03
  1.741798e+01    1.894762e+03
  1.747098e+01    1.893791e+03
  1.752399e+01    1.890066e+03
  1.757699e+01    1.885445e+03
  1.763000e+01    1.879087e+03
  1.768300e+01    1.875347e+03
  1.773601e+01    1.874300e+03
  1.778901e+01    1.867771e+03
  1.784201e+01    1.863247e+03
  1.789502e+01    1.861118e+03
  1.794802e+01    1.854416e+03
  1.800103e+01    1.853056e+03
  1.805403e+01    1.849798e+03
  1.810703e+01    1.842830e+03
  1.816004e+01    1.839670e+03
  1.821304e+01    1.836261e+03
  1.826605e+01    1.841401e+03
  1.831905e+01    1.831282e+03
  1.837205e+01    1.827378e+03
  1.842506e+01    1.823777e+03
  1.847806e+01    1.823020e+03
  1.853107e+01    1.820484e+03
  1.858407e+01    1.818691e+03
  1.863708e+01    1.820650e+03
  1.869008e+01    1.833296e+03
  1.874308e+01    1.822545e+03
  1.879609e+01    1.817018e+03
  1.884909e+01    1.813442e+03
  1.890210e+01    1.811159e+03
  1.895510e+01    1.802012e+03
  1.900810e+01    1.799213e+03
  1.906111e+01    1.793068e+03
  1.911411e+01    1.786742e+03
  1.916712e+01    1.782116e+03
  1.922012e+01    1.779453e+03
  1.927312e+01    1.772909e+03
  1.932613e+01    1.767607e+03
  1.937913e+01    1.763791e+03
  1.943214e+01    1.759193e+03
  1.948514e+01    1.754052e+03
  1.953814e+01    1.748588e+03
  1.959115e+01    1.744363e+03
  1.964415e+01    1.739399e+03
  1.969716e+01    1.735952e+03
  1.975016e+01    1.729711e+03
  1.980317e+01    1.727154e+03
  1.985617e+01    1.722863e+03
  1.990917e+01    1.716599e+03
  1.996218e+01    1.710753e+03
  2.001518e+01    1.707380e+03
  2.006819e+01    1.702134e+03
  2.012119e+01    1.695468e+03
  2.017419e+01    1.688919e+03
  2.022720e+01    1.683888e+03
  2.028020e+01    1.676134e+03
  2.033321e+01    1.670658e+03
  2.038621e+01    1.666408e+03
  2.043921e+01    1.662431e+03
  2.049222e+01    1.657795e+03
  2.054522e+01    1.651697e+03
  2.059823e+01    1.647701e+03
  2.065123e+01    1.640593e+03
  2.070424e+01    1.638955e+03
  2.075724e+01    1.638957e+03
  2.081024e+01    1.645612e+03
  2.086325e+01    1.632944e+03
  2.091625e+01    1.617690e+03
  2.096926e+01    1.605744e+03
  2.102226e+01    1.593585e+03
  2.107526e+01    1.584258e+03
  2.112827e+01    1.573312e+03
  2.118127e+01    1.565825e+03
  2.123428e+01    1.557933e+03
  2.128728e+01    1.548070e+03
  2.134028e+01    1.539528e+03
  2.139329e+01    1.528920e+03
  2.144629e+01    1.519218e+03
  2.149930e+01    1.511732e+03
  2.155230e+01    1.502367e+03
  2.160530e+01    1.494814e+03
  2.165831e+01    1.485035e+03
  2.171131e+01    1.479299e+03
  2.176432e+01    1.474158e+03
  2.181732e+01    1.463914e+03
  2.187033e+01    1.455414e+03
  2.192333e+01    1.449203e+03
  2.197633e+01    1.437999e+03
  2.202934e+01    1.431505e+03
  2.208234e+01    1.421490e+03
  2.213535e+01    1.412996e+03
  2.218835e+01    1.405101e+03
  2.224135e+01    1.397129e+03
  2.229436e+01    1.390364e+03
  2.234736e+01    1.381945e+03
  2.240037e+01    1.370896e+03
  2.245337e+01    1.364389e+03
  2.250637e+01    1.357732e+03
  2.255938e+01    1.350309e+03
  2.261238e+01    1.352744e+03
  2.266539e+01    1.353222e+03
  2.271839e+01    1.355682e+03
  2.277140e+01    1.354706e+03
  2.282440e+01    1.354365e+03
  2.287740e+01    1.350721e+03
  2.293041e+01    1.351385e+03
  2.298341e+01    1.349909e+03
  2.303642e+01    1.349436e+03
  2.308942e+01    1.348280e+03
  2.314242e+01    1.346128e+03
  2.319543e+01    1.341252e+03
  2.324843e+01    1.337777e+03
  2.330144e+01    1.334744e+03
  2.335444e+01    1.332783e+03
  2.340744e+01    1.332189e+03
  2.346045e+01    1.331491e+03
  2.351345e+01    1.327484e+03
  2.356646e+01    1.323666e+03
  2.361946e+01    1.323748e+03
  2.367246e+01    1.321777e+03
  2.372547e+01    1.316845e+03
  2.377847e+01    1.314093e+03
  2.383148e+01    1.309191e+03
  2.388448e+01    1.302771e+03
  2.393749e+01    1.301957e+03
  2.399049e+01    1.299152e+03
  2.404349e+01    1.296467e+03
  2.409650e+01    1.290881e+03
  2.414950e+01    1.286623e+03
  2.420251e+01    1.279089e+03
  2.425551e+01    1.271472e+03
  2.430851e+01    1.268249e+03
  2.436152e+01    1.263382e+03
  2.441452e+01    1.254490e+03
  2.446753e+01    1.251282e+03
  2.452053e+01    1.243673e+03
  2.457353e+01    1.240107e+03
  2.462654e+01    1.235877e+03
  2.467954e+01    1.226880e+03
  2.473255e+01    1.217644e+03
  2.478555e+01    1.209395e+03
  2.483855e+01    1.198750e+03
  2.489156e+01    1.191705e+03
  2.494456e+01    1.181487e+03
  2.499757e+01    1.173515e+03
  2.505057e+01    1.168124e+03
  2.510358e+01    1.160540e+03
  2.515658e+01    1.155114e+03
  2.520958e+01    1.150126e+03
  2.526259e+01    1.142544e+03
  2.531559e+01    1.140808e+03
  2.536860e+01    1.134123e+03
  2.542160e+01    1.126687e+03
  2.547460e+01    1.119884e+03
  2.552761e+01    1.111590e+03
  2.558061e+01    1.107913e+03
  2.563362e+01    1.107855e+03
  2.568662e+01    1.096385e+03
  2.573962e+01    1.090935e+03
  2.579263e+01    1.081744e+03
  2.584563e+01    1.074706e+03
  2.589864e+01    1.069483e+03
  2.595164e+01    1.070823e+03
  2.600465e+01    1.067687e+03
  2.605765e+01    1.064766e+03
  2.611065e+01    1.064907e+03
  2.616366e+01    1.064044e+03
  2.621666e+01    1.051354e+03
  2.626967e+01    1.039763e+03
  2.632267e+01    1.035106e+03
  2.637567e+01    1.032675e+03
  2.642868e+01    1.007013e+03
  2.648168e+01    9.880770e+02
