# == pyFAI calibration ==
# Distance Sample to Detector: 0.2945755399789714 m
# PONI: 2.880e-01, 2.450e-01 m
# Rotations: -0.007291 -0.010887 -0.000000 rad
# 
# == Fit2d calibration ==
# Distance Sample-beamCenter: 294.601 mm
# Center: x=1437.174, y=1655.617 pix
# Tilt: 0.751 deg  TiltPlanRot: -56.193 deg
# 
# Detector Pilatus CdTe 2M	 PixelSize= 1.720e-04, 1.720e-04 m
#    Detector has a mask: True 
#    Detector has a dark current: False 
#    detector has a flat field: False 
# 
# Wavelength: 2.0732883349524408e-11 m
# Mask applied: from detector
# Dark current applied: False
# Flat field applied: False
# Polarization factor: 0.9
# Normalization factor: 1.0
# --> /gpfs/current/raw/FMue_2/FMue_2_20231024_120911_00020.dat
#        q_A^-1             I 
  3.263564e-02             nan
  8.563974e-02             nan
  1.386438e-01             nan
  1.916479e-01             nan
  2.446520e-01    3.517008e+04
  2.976561e-01    2.753748e+04
  3.506602e-01    1.482279e+04
  4.036643e-01    1.043412e+04
  4.566684e-01    8.962526e+03
  5.096725e-01    8.617381e+03
  5.626766e-01    8.437785e+03
  6.156807e-01    8.225176e+03
  6.686848e-01    8.162485e+03
  7.216890e-01    8.266141e+03
  7.746931e-01    8.298939e+03
  8.276972e-01    8.408973e+03
  8.807013e-01    8.477224e+03
  9.337054e-01    8.640538e+03
  9.867095e-01    8.776955e+03
  1.039714e+00    9.036485e+03
  1.092718e+00    9.364088e+03
  1.145722e+00    9.862537e+03
  1.198726e+00    1.048073e+04
  1.251730e+00    1.132536e+04
  1.304734e+00    1.268231e+04
  1.357738e+00    1.374205e+04
  1.410742e+00    1.398603e+04
  1.463746e+00    1.401586e+04
  1.516750e+00    1.387238e+04
  1.569755e+00    1.335568e+04
  1.622759e+00    1.268248e+04
  1.675763e+00    1.181364e+04
  1.728767e+00    1.090943e+04
  1.781771e+00    1.008944e+04
  1.834775e+00    9.413091e+03
  1.887779e+00    8.826871e+03
  1.940783e+00    8.450736e+03
  1.993787e+00    8.159229e+03
  2.046791e+00    8.075565e+03
  2.099796e+00    8.564187e+03
  2.152800e+00    1.020554e+04
  2.205804e+00    1.103134e+04
  2.258808e+00    9.348376e+03
  2.311812e+00    8.081237e+03
  2.364816e+00    7.706923e+03
  2.417820e+00    7.978282e+03
  2.470824e+00    9.511689e+03
  2.523828e+00    1.476076e+04
  2.576832e+00    1.914762e+04
  2.629837e+00    1.412034e+04
  2.682841e+00    9.488109e+03
  2.735845e+00    7.689264e+03
  2.788849e+00    6.474193e+03
  2.841853e+00    5.593011e+03
  2.894857e+00    5.205120e+03
  2.947861e+00    5.107599e+03
  3.000865e+00    5.401290e+03
  3.053869e+00    6.826981e+03
  3.106874e+00    9.228707e+03
  3.159878e+00    9.637734e+03
  3.212882e+00    8.153399e+03
  3.265886e+00    5.985482e+03
  3.318890e+00    4.869961e+03
  3.371894e+00    4.594633e+03
  3.424898e+00    4.502077e+03
  3.477902e+00    4.477707e+03
  3.530906e+00    4.468662e+03
  3.583910e+00    4.472800e+03
  3.636915e+00    4.546276e+03
  3.689919e+00    4.758468e+03
  3.742923e+00    5.305351e+03
  3.795927e+00    5.921511e+03
  3.848931e+00    5.797881e+03
  3.901935e+00    5.747265e+03
  3.954939e+00    6.821409e+03
  4.007943e+00    8.974691e+03
  4.060947e+00    9.183830e+03
  4.113951e+00    7.466428e+03
  4.166956e+00    6.420779e+03
  4.219960e+00    6.061392e+03
  4.272964e+00    6.295967e+03
  4.325968e+00    8.152670e+03
  4.378972e+00    1.227458e+04
  4.431976e+00    1.344369e+04
  4.484980e+00    1.216113e+04
  4.537984e+00    9.366178e+03
  4.590988e+00    6.602740e+03
  4.643992e+00    5.410216e+03
  4.696997e+00    5.021850e+03
  4.750001e+00    4.877697e+03
  4.803005e+00    4.874566e+03
  4.856009e+00    5.039096e+03
  4.909013e+00    5.220423e+03
  4.962017e+00    5.245826e+03
  5.015021e+00    5.508338e+03
  5.068025e+00    6.156703e+03
  5.121029e+00    6.280094e+03
  5.174033e+00    5.602842e+03
  5.227038e+00    4.880888e+03
  5.280042e+00    4.494243e+03
  5.333046e+00    4.406926e+03
  5.386050e+00    4.426270e+03
  5.439054e+00    4.258126e+03
  5.492058e+00    4.200374e+03
  5.545062e+00    3.937534e+03
  5.598066e+00    3.609628e+03
  5.651070e+00    3.483257e+03
  5.704074e+00    3.522157e+03
  5.757079e+00    3.763135e+03
  5.810083e+00    4.017853e+03
  5.863087e+00    4.161481e+03
  5.916091e+00    4.676589e+03
  5.969095e+00    5.043314e+03
  6.022099e+00    4.513165e+03
  6.075103e+00    4.009603e+03
  6.128107e+00    3.902760e+03
  6.181111e+00    4.055616e+03
  6.234115e+00    4.092957e+03
  6.287120e+00    3.928661e+03
  6.340124e+00    3.780021e+03
  6.393128e+00    3.638217e+03
  6.446132e+00    3.477002e+03
  6.499136e+00    3.420456e+03
  6.552140e+00    3.506136e+03
  6.605144e+00    3.639844e+03
  6.658148e+00    3.870798e+03
  6.711152e+00    4.213469e+03
  6.764156e+00    4.125635e+03
  6.817161e+00    3.686842e+03
  6.870165e+00    3.417606e+03
  6.923169e+00    3.386483e+03
  6.976173e+00    3.378583e+03
  7.029177e+00    3.309506e+03
  7.082181e+00    3.293457e+03
  7.135185e+00    3.216603e+03
  7.188189e+00    3.121496e+03
  7.241193e+00    3.096950e+03
  7.294197e+00    3.184176e+03
  7.347202e+00    3.379634e+03
  7.400206e+00    3.552431e+03
  7.453210e+00    3.493486e+03
  7.506214e+00    3.493169e+03
  7.559218e+00    3.813966e+03
  7.612222e+00    4.078361e+03
  7.665226e+00    3.844643e+03
  7.718230e+00    3.731532e+03
  7.771234e+00    3.750307e+03
  7.824239e+00    3.581115e+03
  7.877243e+00    3.438330e+03
  7.930247e+00    3.419659e+03
  7.983251e+00    3.535651e+03
  8.036255e+00    3.601102e+03
  8.089259e+00    3.410793e+03
  8.142263e+00    3.177404e+03
  8.195267e+00    3.052680e+03
  8.248271e+00    2.999463e+03
  8.301275e+00    2.960575e+03
  8.354280e+00    2.924587e+03
  8.407284e+00    2.905067e+03
  8.460288e+00    2.917238e+03
  8.513292e+00    2.936795e+03
  8.566296e+00    2.970120e+03
  8.619300e+00    2.965542e+03
  8.672304e+00    2.926133e+03
  8.725308e+00    2.952049e+03
  8.778312e+00    2.997135e+03
  8.831316e+00    2.950271e+03
  8.884321e+00    2.893149e+03
  8.937325e+00    2.887222e+03
  8.990329e+00    2.899335e+03
  9.043333e+00    2.907596e+03
  9.096337e+00    2.938271e+03
  9.149341e+00    2.977547e+03
  9.202345e+00    2.904689e+03
  9.255349e+00    2.791849e+03
  9.308353e+00    2.728197e+03
  9.361357e+00    2.678295e+03
  9.414362e+00    2.638575e+03
  9.467366e+00    2.658879e+03
  9.520370e+00    2.714479e+03
  9.573374e+00    2.767782e+03
  9.626378e+00    2.818402e+03
  9.679382e+00    2.820861e+03
  9.732386e+00    2.782254e+03
  9.785390e+00    2.779791e+03
  9.838394e+00    2.767157e+03
  9.891398e+00    2.703565e+03
  9.944403e+00    2.662532e+03
  9.997407e+00    2.671004e+03
  1.005041e+01    2.707042e+03
  1.010341e+01    2.732893e+03
  1.015642e+01    2.730484e+03
  1.020942e+01    2.644915e+03
  1.026243e+01    2.547061e+03
  1.031543e+01    2.508208e+03
  1.036844e+01    2.501782e+03
  1.042144e+01    2.491635e+03
  1.047444e+01    2.505158e+03
  1.052745e+01    2.521999e+03
  1.058045e+01    2.541205e+03
  1.063346e+01    2.528437e+03
  1.068646e+01    2.498193e+03
  1.073946e+01    2.480243e+03
  1.079247e+01    2.463855e+03
  1.084547e+01    2.443140e+03
  1.089848e+01    2.460073e+03
  1.095148e+01    2.502983e+03
  1.100448e+01    2.550858e+03
  1.105749e+01    2.562439e+03
  1.111049e+01    2.518827e+03
  1.116350e+01    2.457869e+03
  1.121650e+01    2.422062e+03
  1.126951e+01    2.404815e+03
  1.132251e+01    2.405947e+03
  1.137551e+01    2.431071e+03
  1.142852e+01    2.469153e+03
  1.148152e+01    2.497800e+03
  1.153453e+01    2.514124e+03
  1.158753e+01    2.538180e+03
  1.164053e+01    2.517290e+03
  1.169354e+01    2.460025e+03
  1.174654e+01    2.446512e+03
  1.179955e+01    2.439475e+03
  1.185255e+01    2.450498e+03
  1.190555e+01    2.438963e+03
  1.195856e+01    2.397740e+03
  1.201156e+01    2.353746e+03
  1.206457e+01    2.328168e+03
  1.211757e+01    2.333795e+03
  1.217057e+01    2.351569e+03
  1.222358e+01    2.380635e+03
  1.227658e+01    2.398092e+03
  1.232959e+01    2.383987e+03
  1.238259e+01    2.344528e+03
  1.243560e+01    2.326467e+03
  1.248860e+01    2.313506e+03
  1.254160e+01    2.318861e+03
  1.259461e+01    2.326007e+03
  1.264761e+01    2.325879e+03
  1.270062e+01    2.312550e+03
  1.275362e+01    2.292921e+03
  1.280662e+01    2.276902e+03
  1.285963e+01    2.267237e+03
  1.291263e+01    2.259474e+03
  1.296564e+01    2.259890e+03
  1.301864e+01    2.268177e+03
  1.307164e+01    2.274582e+03
  1.312465e+01    2.277782e+03
  1.317765e+01    2.279089e+03
  1.323066e+01    2.260835e+03
  1.328366e+01    2.261048e+03
  1.333667e+01    2.280763e+03
  1.338967e+01    2.301513e+03
  1.344267e+01    2.306959e+03
  1.349568e+01    2.268541e+03
  1.354868e+01    2.234440e+03
  1.360169e+01    2.217083e+03
  1.365469e+01    2.213248e+03
  1.370769e+01    2.221398e+03
  1.376070e+01    2.216741e+03
  1.381370e+01    2.207299e+03
  1.386671e+01    2.187593e+03
  1.391971e+01    2.169825e+03
  1.397271e+01    2.164237e+03
  1.402572e+01    2.164554e+03
  1.407872e+01    2.165712e+03
  1.413173e+01    2.161476e+03
  1.418473e+01    2.147031e+03
  1.423773e+01    2.132206e+03
  1.429074e+01    2.123386e+03
  1.434374e+01    2.123062e+03
  1.439675e+01    2.120336e+03
  1.444975e+01    2.123156e+03
  1.450276e+01    2.114792e+03
  1.455576e+01    2.102811e+03
  1.460876e+01    2.095893e+03
  1.466177e+01    2.089507e+03
  1.471477e+01    2.092729e+03
  1.476778e+01    2.097057e+03
  1.482078e+01    2.089917e+03
  1.487378e+01    2.075357e+03
  1.492679e+01    2.064557e+03
  1.497979e+01    2.061068e+03
  1.503280e+01    2.063307e+03
  1.508580e+01    2.063421e+03
  1.513880e+01    2.063683e+03
  1.519181e+01    2.072579e+03
  1.524481e+01    2.099655e+03
  1.529782e+01    2.086612e+03
  1.535082e+01    2.086347e+03
  1.540382e+01    2.087687e+03
  1.545683e+01    2.073735e+03
  1.550983e+01    2.070803e+03
  1.556284e+01    2.059091e+03
  1.561584e+01    2.054342e+03
  1.566885e+01    2.055286e+03
  1.572185e+01    2.061701e+03
  1.577485e+01    2.063371e+03
  1.582786e+01    2.057159e+03
  1.588086e+01    2.048300e+03
  1.593387e+01    2.041949e+03
  1.598687e+01    2.034906e+03
  1.603987e+01    2.025796e+03
  1.609288e+01    2.012420e+03
  1.614588e+01    2.002874e+03
  1.619889e+01    2.004339e+03
  1.625189e+01    2.009264e+03
  1.630489e+01    2.005427e+03
  1.635790e+01    2.001476e+03
  1.641090e+01    1.996666e+03
  1.646391e+01    1.994874e+03
  1.651691e+01    2.000804e+03
  1.656992e+01    2.001952e+03
  1.662292e+01    1.998868e+03
  1.667592e+01    1.996274e+03
  1.672893e+01    1.988229e+03
  1.678193e+01    1.986453e+03
  1.683494e+01    1.982990e+03
  1.688794e+01    1.984939e+03
  1.694094e+01    1.983880e+03
  1.699395e+01    1.982859e+03
  1.704695e+01    1.980465e+03
  1.709996e+01    1.979350e+03
  1.715296e+01    1.978189e+03
  1.720596e+01    1.973094e+03
  1.725897e+01    1.963265e+03
  1.731197e+01    1.956381e+03
  1.736498e+01    1.950331e+03
  1.741798e+01    1.946580e+03
  1.747098e+01    1.946646e+03
  1.752399e+01    1.943557e+03
  1.757699e+01    1.940297e+03
  1.763000e+01    1.939566e+03
  1.768300e+01    1.940033e+03
  1.773601e+01    1.937994e+03
  1.778901e+01    1.933261e+03
  1.784201e+01    1.926229e+03
  1.789502e+01    1.924220e+03
  1.794802e+01    1.919642e+03
  1.800103e+01    1.919974e+03
  1.805403e+01    1.913974e+03
  1.810703e+01    1.907004e+03
  1.816004e+01    1.900139e+03
  1.821304e+01    1.897497e+03
  1.826605e+01    1.900136e+03
  1.831905e+01    1.888910e+03
  1.837205e+01    1.884614e+03
  1.842506e+01    1.881241e+03
  1.847806e+01    1.879748e+03
  1.853107e+01    1.879112e+03
  1.858407e+01    1.877962e+03
  1.863708e+01    1.877621e+03
  1.869008e+01    1.894745e+03
  1.874308e+01    1.884805e+03
  1.879609e+01    1.880526e+03
  1.884909e+01    1.876689e+03
  1.890210e+01    1.873496e+03
  1.895510e+01    1.867088e+03
  1.900810e+01    1.868014e+03
  1.906111e+01    1.863774e+03
  1.911411e+01    1.857851e+03
  1.916712e+01    1.855102e+03
  1.922012e+01    1.852450e+03
  1.927312e+01    1.846636e+03
  1.932613e+01    1.843292e+03
  1.937913e+01    1.839413e+03
  1.943214e+01    1.833166e+03
  1.948514e+01    1.831985e+03
  1.953814e+01    1.826652e+03
  1.959115e+01    1.822052e+03
  1.964415e+01    1.817493e+03
  1.969716e+01    1.815973e+03
  1.975016e+01    1.812015e+03
  1.980317e+01    1.808384e+03
  1.985617e+01    1.803746e+03
  1.990917e+01    1.797524e+03
  1.996218e+01    1.794836e+03
  2.001518e+01    1.792610e+03
  2.006819e+01    1.785729e+03
  2.012119e+01    1.781708e+03
  2.017419e+01    1.778155e+03
  2.022720e+01    1.772672e+03
  2.028020e+01    1.765899e+03
  2.033321e+01    1.759822e+03
  2.038621e+01    1.752173e+03
  2.043921e+01    1.748763e+03
  2.049222e+01    1.743943e+03
  2.054522e+01    1.738526e+03
  2.059823e+01    1.733309e+03
  2.065123e+01    1.729986e+03
  2.070424e+01    1.725542e+03
  2.075724e+01    1.722471e+03
  2.081024e+01    1.729965e+03
  2.086325e+01    1.723395e+03
  2.091625e+01    1.707168e+03
  2.096926e+01    1.694133e+03
  2.102226e+01    1.682097e+03
  2.107526e+01    1.675852e+03
  2.112827e+01    1.663614e+03
  2.118127e+01    1.653277e+03
  2.123428e+01    1.643609e+03
  2.128728e+01    1.634128e+03
  2.134028e+01    1.626329e+03
  2.139329e+01    1.614534e+03
  2.144629e+01    1.605644e+03
  2.149930e+01    1.597329e+03
  2.155230e+01    1.590624e+03
  2.160530e+01    1.583292e+03
  2.165831e+01    1.573219e+03
  2.171131e+01    1.566212e+03
  2.176432e+01    1.562491e+03
  2.181732e+01    1.552549e+03
  2.187033e+01    1.543089e+03
  2.192333e+01    1.536150e+03
  2.197633e+01    1.526197e+03
  2.202934e+01    1.518677e+03
  2.208234e+01    1.509705e+03
  2.213535e+01    1.498299e+03
  2.218835e+01    1.491135e+03
  2.224135e+01    1.481927e+03
  2.229436e+01    1.473833e+03
  2.234736e+01    1.467145e+03
  2.240037e+01    1.456753e+03
  2.245337e+01    1.448448e+03
  2.250637e+01    1.442991e+03
  2.255938e+01    1.432839e+03
  2.261238e+01    1.433519e+03
  2.266539e+01    1.434693e+03
  2.271839e+01    1.435651e+03
  2.277140e+01    1.434788e+03
  2.282440e+01    1.434871e+03
  2.287740e+01    1.431483e+03
  2.293041e+01    1.431729e+03
  2.298341e+01    1.429544e+03
  2.303642e+01    1.429263e+03
  2.308942e+01    1.425568e+03
  2.314242e+01    1.423580e+03
  2.319543e+01    1.420030e+03
  2.324843e+01    1.413764e+03
  2.330144e+01    1.412890e+03
  2.335444e+01    1.409905e+03
  2.340744e+01    1.410450e+03
  2.346045e+01    1.406718e+03
  2.351345e+01    1.405208e+03
  2.356646e+01    1.401014e+03
  2.361946e+01    1.401441e+03
  2.367246e+01    1.401224e+03
  2.372547e+01    1.395006e+03
  2.377847e+01    1.391166e+03
  2.383148e+01    1.388016e+03
  2.388448e+01    1.384182e+03
  2.393749e+01    1.380359e+03
  2.399049e+01    1.378748e+03
  2.404349e+01    1.378885e+03
  2.409650e+01    1.375189e+03
  2.414950e+01    1.372478e+03
  2.420251e+01    1.366879e+03
  2.425551e+01    1.363208e+03
  2.430851e+01    1.356573e+03
  2.436152e+01    1.354661e+03
  2.441452e+01    1.349742e+03
  2.446753e+01    1.345506e+03
  2.452053e+01    1.337396e+03
  2.457353e+01    1.335097e+03
  2.462654e+01    1.332520e+03
  2.467954e+01    1.322186e+03
  2.473255e+01    1.315594e+03
  2.478555e+01    1.302892e+03
  2.483855e+01    1.292575e+03
  2.489156e+01    1.286463e+03
  2.494456e+01    1.275576e+03
  2.499757e+01    1.268267e+03
  2.505057e+01    1.256893e+03
  2.510358e+01    1.251484e+03
  2.515658e+01    1.250069e+03
  2.520958e+01    1.252224e+03
  2.526259e+01    1.227960e+03
  2.531559e+01    1.219805e+03
  2.536860e+01    1.210993e+03
  2.542160e+01    1.206920e+03
  2.547460e+01    1.196091e+03
  2.552761e+01    1.186312e+03
  2.558061e+01    1.184043e+03
  2.563362e+01    1.180473e+03
  2.568662e+01    1.167222e+03
  2.573962e+01    1.161266e+03
  2.579263e+01    1.152042e+03
  2.584563e+01    1.144581e+03
  2.589864e+01    1.138583e+03
  2.595164e+01    1.136753e+03
  2.600465e+01    1.134918e+03
  2.605765e+01    1.131521e+03
  2.611065e+01    1.127787e+03
  2.616366e+01    1.125581e+03
  2.621666e+01    1.117367e+03
  2.626967e+01    1.106719e+03
  2.632267e+01    1.110627e+03
  2.637567e+01    1.095522e+03
  2.642868e+01    1.076765e+03
  2.648168e+01    1.054049e+03
