# == pyFAI calibration ==
# Distance Sample to Detector: 0.2945755399789714 m
# PONI: 2.880e-01, 2.450e-01 m
# Rotations: -0.007291 -0.010887 -0.000000 rad
# 
# == Fit2d calibration ==
# Distance Sample-beamCenter: 294.601 mm
# Center: x=1437.174, y=1655.617 pix
# Tilt: 0.751 deg  TiltPlanRot: -56.193 deg
# 
# Detector Pilatus CdTe 2M	 PixelSize= 1.720e-04, 1.720e-04 m
#    Detector has a mask: True 
#    Detector has a dark current: False 
#    detector has a flat field: False 
# 
# Wavelength: 2.0732883349524408e-11 m
# Mask applied: from detector
# Dark current applied: False
# Flat field applied: False
# Polarization factor: 0.9
# Normalization factor: 1.0
# --> /gpfs/current/raw/FMue_2/FMue_2_20231024_120911_00245.dat
#        q_A^-1             I 
  3.263564e-02             nan
  8.563974e-02             nan
  1.386438e-01             nan
  1.916479e-01             nan
  2.446520e-01    3.915250e+04
  2.976561e-01    3.016483e+04
  3.506602e-01    1.608149e+04
  4.036643e-01    1.124973e+04
  4.566684e-01    9.568997e+03
  5.096725e-01    9.117449e+03
  5.626766e-01    8.809060e+03
  6.156807e-01    8.444252e+03
  6.686848e-01    8.270353e+03
  7.216890e-01    8.309753e+03
  7.746931e-01    8.299785e+03
  8.276972e-01    8.382639e+03
  8.807013e-01    8.449791e+03
  9.337054e-01    8.589604e+03
  9.867095e-01    8.749279e+03
  1.039714e+00    8.992424e+03
  1.092718e+00    9.327771e+03
  1.145722e+00    9.823673e+03
  1.198726e+00    1.039273e+04
  1.251730e+00    1.110388e+04
  1.304734e+00    1.199894e+04
  1.357738e+00    1.287458e+04
  1.410742e+00    1.356493e+04
  1.463746e+00    1.390382e+04
  1.516750e+00    1.386577e+04
  1.569755e+00    1.338083e+04
  1.622759e+00    1.271786e+04
  1.675763e+00    1.186191e+04
  1.728767e+00    1.095556e+04
  1.781771e+00    1.015208e+04
  1.834775e+00    9.491626e+03
  1.887779e+00    8.927765e+03
  1.940783e+00    8.562476e+03
  1.993787e+00    8.250546e+03
  2.046791e+00    8.078953e+03
  2.099796e+00    8.016115e+03
  2.152800e+00    8.016618e+03
  2.205804e+00    8.089789e+03
  2.258808e+00    8.145458e+03
  2.311812e+00    8.169523e+03
  2.364816e+00    8.253917e+03
  2.417820e+00    8.575322e+03
  2.470824e+00    9.277286e+03
  2.523828e+00    1.061427e+04
  2.576832e+00    1.189231e+04
  2.629837e+00    1.025287e+04
  2.682841e+00    8.318933e+03
  2.735845e+00    7.711545e+03
  2.788849e+00    7.094102e+03
  2.841853e+00    6.828235e+03
  2.894857e+00    7.702576e+03
  2.947861e+00    1.045735e+04
  3.000865e+00    1.220233e+04
  3.053869e+00    1.065614e+04
  3.106874e+00    9.264800e+03
  3.159878e+00    9.134670e+03
  3.212882e+00    8.090763e+03
  3.265886e+00    6.195317e+03
  3.318890e+00    5.336303e+03
  3.371894e+00    5.146527e+03
  3.424898e+00    5.207367e+03
  3.477902e+00    5.382645e+03
  3.530906e+00    5.336124e+03
  3.583910e+00    5.045644e+03
  3.636915e+00    4.872416e+03
  3.689919e+00    4.837806e+03
  3.742923e+00    4.885103e+03
  3.795927e+00    4.984607e+03
  3.848931e+00    5.116793e+03
  3.901935e+00    5.295454e+03
  3.954939e+00    5.523388e+03
  4.007943e+00    5.874181e+03
  4.060947e+00    6.346808e+03
  4.113951e+00    7.045883e+03
  4.166956e+00    8.408923e+03
  4.219960e+00    9.760444e+03
  4.272964e+00    8.495676e+03
  4.325968e+00    7.078087e+03
  4.378972e+00    7.413568e+03
  4.431976e+00    9.502353e+03
  4.484980e+00    1.056926e+04
  4.537984e+00    8.416222e+03
  4.590988e+00    6.385393e+03
  4.643992e+00    5.662136e+03
  4.696997e+00    5.473290e+03
  4.750001e+00    5.441249e+03
  4.803005e+00    5.520042e+03
  4.856009e+00    5.797197e+03
  4.909013e+00    6.332398e+03
  4.962017e+00    6.631487e+03
  5.015021e+00    6.197949e+03
  5.068025e+00    5.794574e+03
  5.121029e+00    5.784169e+03
  5.174033e+00    5.721097e+03
  5.227038e+00    5.196590e+03
  5.280042e+00    4.705167e+03
  5.333046e+00    4.423703e+03
  5.386050e+00    4.279056e+03
  5.439054e+00    4.274909e+03
  5.492058e+00    4.233368e+03
  5.545062e+00    3.945971e+03
  5.598066e+00    3.727578e+03
  5.651070e+00    3.656213e+03
  5.704074e+00    3.671879e+03
  5.757079e+00    3.790483e+03
  5.810083e+00    3.987835e+03
  5.863087e+00    4.059983e+03
  5.916091e+00    4.055166e+03
  5.969095e+00    4.103032e+03
  6.022099e+00    4.070148e+03
  6.075103e+00    4.026626e+03
  6.128107e+00    3.936285e+03
  6.181111e+00    3.846250e+03
  6.234115e+00    3.883306e+03
  6.287120e+00    3.990554e+03
  6.340124e+00    4.017404e+03
  6.393128e+00    3.994188e+03
  6.446132e+00    3.968624e+03
  6.499136e+00    3.959002e+03
  6.552140e+00    3.899114e+03
  6.605144e+00    3.912669e+03
  6.658148e+00    3.960030e+03
  6.711152e+00    3.807794e+03
  6.764156e+00    3.597534e+03
  6.817161e+00    3.460945e+03
  6.870165e+00    3.362378e+03
  6.923169e+00    3.298586e+03
  6.976173e+00    3.332076e+03
  7.029177e+00    3.397563e+03
  7.082181e+00    3.432195e+03
  7.135185e+00    3.400105e+03
  7.188189e+00    3.381848e+03
  7.241193e+00    3.436935e+03
  7.294197e+00    3.523338e+03
  7.347202e+00    3.459338e+03
  7.400206e+00    3.350750e+03
  7.453210e+00    3.300191e+03
  7.506214e+00    3.297532e+03
  7.559218e+00    3.320839e+03
  7.612222e+00    3.398695e+03
  7.665226e+00    3.570372e+03
  7.718230e+00    3.771896e+03
  7.771234e+00    3.743305e+03
  7.824239e+00    3.502337e+03
  7.877243e+00    3.315474e+03
  7.930247e+00    3.182532e+03
  7.983251e+00    3.114614e+03
  8.036255e+00    3.090874e+03
  8.089259e+00    3.084948e+03
  8.142263e+00    3.091591e+03
  8.195267e+00    3.093886e+03
  8.248271e+00    3.087852e+03
  8.301275e+00    3.078298e+03
  8.354280e+00    3.074777e+03
  8.407284e+00    3.080064e+03
  8.460288e+00    3.071522e+03
  8.513292e+00    3.046734e+03
  8.566296e+00    3.051092e+03
  8.619300e+00    3.052114e+03
  8.672304e+00    3.048493e+03
  8.725308e+00    3.054508e+03
  8.778312e+00    3.054695e+03
  8.831316e+00    3.054245e+03
  8.884321e+00    3.057559e+03
  8.937325e+00    3.039026e+03
  8.990329e+00    2.974903e+03
  9.043333e+00    2.888161e+03
  9.096337e+00    2.838491e+03
  9.149341e+00    2.810136e+03
  9.202345e+00    2.781543e+03
  9.255349e+00    2.758096e+03
  9.308353e+00    2.746367e+03
  9.361357e+00    2.744516e+03
  9.414362e+00    2.738801e+03
  9.467366e+00    2.734617e+03
  9.520370e+00    2.705258e+03
  9.573374e+00    2.675561e+03
  9.626378e+00    2.661042e+03
  9.679382e+00    2.659782e+03
  9.732386e+00    2.659438e+03
  9.785390e+00    2.656995e+03
  9.838394e+00    2.654080e+03
  9.891398e+00    2.649646e+03
  9.944403e+00    2.637483e+03
  9.997407e+00    2.615505e+03
  1.005041e+01    2.591187e+03
  1.010341e+01    2.549857e+03
  1.015642e+01    2.529265e+03
  1.020942e+01    2.520311e+03
  1.026243e+01    2.515589e+03
  1.031543e+01    2.526884e+03
  1.036844e+01    2.558518e+03
  1.042144e+01    2.561913e+03
  1.047444e+01    2.562975e+03
  1.052745e+01    2.555458e+03
  1.058045e+01    2.549632e+03
  1.063346e+01    2.539542e+03
  1.068646e+01    2.526335e+03
  1.073946e+01    2.504533e+03
  1.079247e+01    2.491185e+03
  1.084547e+01    2.478152e+03
  1.089848e+01    2.477857e+03
  1.095148e+01    2.478371e+03
  1.100448e+01    2.472386e+03
  1.105749e+01    2.470384e+03
  1.111049e+01    2.470373e+03
  1.116350e+01    2.457868e+03
  1.121650e+01    2.445465e+03
  1.126951e+01    2.429520e+03
  1.132251e+01    2.419742e+03
  1.137551e+01    2.413567e+03
  1.142852e+01    2.405047e+03
  1.148152e+01    2.397616e+03
  1.153453e+01    2.390665e+03
  1.158753e+01    2.382978e+03
  1.164053e+01    2.378416e+03
  1.169354e+01    2.380920e+03
  1.174654e+01    2.407698e+03
  1.179955e+01    2.400151e+03
  1.185255e+01    2.393326e+03
  1.190555e+01    2.380161e+03
  1.195856e+01    2.367857e+03
  1.201156e+01    2.358195e+03
  1.206457e+01    2.351614e+03
  1.211757e+01    2.354977e+03
  1.217057e+01    2.356689e+03
  1.222358e+01    2.354088e+03
  1.227658e+01    2.352115e+03
  1.232959e+01    2.350099e+03
  1.238259e+01    2.341830e+03
  1.243560e+01    2.345487e+03
  1.248860e+01    2.340151e+03
  1.254160e+01    2.342276e+03
  1.259461e+01    2.340765e+03
  1.264761e+01    2.332701e+03
  1.270062e+01    2.320930e+03
  1.275362e+01    2.308683e+03
  1.280662e+01    2.302146e+03
  1.285963e+01    2.292815e+03
  1.291263e+01    2.281719e+03
  1.296564e+01    2.271879e+03
  1.301864e+01    2.265266e+03
  1.307164e+01    2.256993e+03
  1.312465e+01    2.246163e+03
  1.317765e+01    2.240618e+03
  1.323066e+01    2.222316e+03
  1.328366e+01    2.214492e+03
  1.333667e+01    2.207404e+03
  1.338967e+01    2.203615e+03
  1.344267e+01    2.214791e+03
  1.349568e+01    2.212125e+03
  1.354868e+01    2.203159e+03
  1.360169e+01    2.193109e+03
  1.365469e+01    2.179062e+03
  1.370769e+01    2.170830e+03
  1.376070e+01    2.158859e+03
  1.381370e+01    2.152722e+03
  1.386671e+01    2.143061e+03
  1.391971e+01    2.137112e+03
  1.397271e+01    2.133405e+03
  1.402572e+01    2.129364e+03
  1.407872e+01    2.123333e+03
  1.413173e+01    2.115489e+03
  1.418473e+01    2.113520e+03
  1.423773e+01    2.107939e+03
  1.429074e+01    2.100936e+03
  1.434374e+01    2.099386e+03
  1.439675e+01    2.092306e+03
  1.444975e+01    2.090264e+03
  1.450276e+01    2.086047e+03
  1.455576e+01    2.080795e+03
  1.460876e+01    2.077528e+03
  1.466177e+01    2.073712e+03
  1.471477e+01    2.074464e+03
  1.476778e+01    2.077602e+03
  1.482078e+01    2.074664e+03
  1.487378e+01    2.069283e+03
  1.492679e+01    2.064847e+03
  1.497979e+01    2.059820e+03
  1.503280e+01    2.058193e+03
  1.508580e+01    2.055904e+03
  1.513880e+01    2.053894e+03
  1.519181e+01    2.060199e+03
  1.524481e+01    2.083099e+03
  1.529782e+01    2.063043e+03
  1.535082e+01    2.053802e+03
  1.540382e+01    2.048155e+03
  1.545683e+01    2.038773e+03
  1.550983e+01    2.043043e+03
  1.556284e+01    2.039654e+03
  1.561584e+01    2.031500e+03
  1.566885e+01    2.028197e+03
  1.572185e+01    2.027114e+03
  1.577485e+01    2.024164e+03
  1.582786e+01    2.019400e+03
  1.588086e+01    2.015856e+03
  1.593387e+01    2.014763e+03
  1.598687e+01    2.011464e+03
  1.603987e+01    2.002745e+03
  1.609288e+01    1.994756e+03
  1.614588e+01    1.989749e+03
  1.619889e+01    1.989453e+03
  1.625189e+01    1.994387e+03
  1.630489e+01    1.989751e+03
  1.635790e+01    1.987337e+03
  1.641090e+01    1.984252e+03
  1.646391e+01    1.977056e+03
  1.651691e+01    1.976558e+03
  1.656992e+01    1.969109e+03
  1.662292e+01    1.963588e+03
  1.667592e+01    1.964068e+03
  1.672893e+01    1.960859e+03
  1.678193e+01    1.960798e+03
  1.683494e+01    1.956171e+03
  1.688794e+01    1.955475e+03
  1.694094e+01    1.953432e+03
  1.699395e+01    1.948062e+03
  1.704695e+01    1.944959e+03
  1.709996e+01    1.940151e+03
  1.715296e+01    1.940023e+03
  1.720596e+01    1.933578e+03
  1.725897e+01    1.930080e+03
  1.731197e+01    1.927417e+03
  1.736498e+01    1.921118e+03
  1.741798e+01    1.920546e+03
  1.747098e+01    1.920000e+03
  1.752399e+01    1.916260e+03
  1.757699e+01    1.910907e+03
  1.763000e+01    1.906252e+03
  1.768300e+01    1.901821e+03
  1.773601e+01    1.896922e+03
  1.778901e+01    1.893445e+03
  1.784201e+01    1.887673e+03
  1.789502e+01    1.885147e+03
  1.794802e+01    1.879140e+03
  1.800103e+01    1.879037e+03
  1.805403e+01    1.873143e+03
  1.810703e+01    1.867672e+03
  1.816004e+01    1.863909e+03
  1.821304e+01    1.862477e+03
  1.826605e+01    1.865523e+03
  1.831905e+01    1.855217e+03
  1.837205e+01    1.851917e+03
  1.842506e+01    1.848540e+03
  1.847806e+01    1.848460e+03
  1.853107e+01    1.846782e+03
  1.858407e+01    1.845296e+03
  1.863708e+01    1.844767e+03
  1.869008e+01    1.859061e+03
  1.874308e+01    1.848682e+03
  1.879609e+01    1.842188e+03
  1.884909e+01    1.838809e+03
  1.890210e+01    1.834150e+03
  1.895510e+01    1.827374e+03
  1.900810e+01    1.823727e+03
  1.906111e+01    1.817451e+03
  1.911411e+01    1.811444e+03
  1.916712e+01    1.808757e+03
  1.922012e+01    1.804132e+03
  1.927312e+01    1.796676e+03
  1.932613e+01    1.793705e+03
  1.937913e+01    1.787537e+03
  1.943214e+01    1.783675e+03
  1.948514e+01    1.778890e+03
  1.953814e+01    1.773221e+03
  1.959115e+01    1.768688e+03
  1.964415e+01    1.764586e+03
  1.969716e+01    1.760641e+03
  1.975016e+01    1.756557e+03
  1.980317e+01    1.750767e+03
  1.985617e+01    1.746454e+03
  1.990917e+01    1.739614e+03
  1.996218e+01    1.736163e+03
  2.001518e+01    1.731344e+03
  2.006819e+01    1.724057e+03
  2.012119e+01    1.717393e+03
  2.017419e+01    1.713026e+03
  2.022720e+01    1.707582e+03
  2.028020e+01    1.700355e+03
  2.033321e+01    1.694022e+03
  2.038621e+01    1.688410e+03
  2.043921e+01    1.683251e+03
  2.049222e+01    1.680104e+03
  2.054522e+01    1.674047e+03
  2.059823e+01    1.670181e+03
  2.065123e+01    1.663860e+03
  2.070424e+01    1.661354e+03
  2.075724e+01    1.659968e+03
  2.081024e+01    1.667343e+03
  2.086325e+01    1.656812e+03
  2.091625e+01    1.641981e+03
  2.096926e+01    1.625602e+03
  2.102226e+01    1.614272e+03
  2.107526e+01    1.605720e+03
  2.112827e+01    1.595637e+03
  2.118127e+01    1.586420e+03
  2.123428e+01    1.577957e+03
  2.128728e+01    1.568428e+03
  2.134028e+01    1.558685e+03
  2.139329e+01    1.549192e+03
  2.144629e+01    1.539962e+03
  2.149930e+01    1.531353e+03
  2.155230e+01    1.521775e+03
  2.160530e+01    1.514547e+03
  2.165831e+01    1.504312e+03
  2.171131e+01    1.500086e+03
  2.176432e+01    1.494743e+03
  2.181732e+01    1.482307e+03
  2.187033e+01    1.473396e+03
  2.192333e+01    1.467635e+03
  2.197633e+01    1.458147e+03
  2.202934e+01    1.449929e+03
  2.208234e+01    1.440746e+03
  2.213535e+01    1.433417e+03
  2.218835e+01    1.423778e+03
  2.224135e+01    1.414782e+03
  2.229436e+01    1.407989e+03
  2.234736e+01    1.399799e+03
  2.240037e+01    1.389948e+03
  2.245337e+01    1.382162e+03
  2.250637e+01    1.375727e+03
  2.255938e+01    1.368335e+03
  2.261238e+01    1.371175e+03
  2.266539e+01    1.370521e+03
  2.271839e+01    1.372870e+03
  2.277140e+01    1.372122e+03
  2.282440e+01    1.370773e+03
  2.287740e+01    1.368178e+03
  2.293041e+01    1.369666e+03
  2.298341e+01    1.366818e+03
  2.303642e+01    1.367018e+03
  2.308942e+01    1.365141e+03
  2.314242e+01    1.360475e+03
  2.319543e+01    1.357918e+03
  2.324843e+01    1.353830e+03
  2.330144e+01    1.351880e+03
  2.335444e+01    1.349854e+03
  2.340744e+01    1.348171e+03
  2.346045e+01    1.347781e+03
  2.351345e+01    1.344868e+03
  2.356646e+01    1.339291e+03
  2.361946e+01    1.339272e+03
  2.367246e+01    1.338055e+03
  2.372547e+01    1.334611e+03
  2.377847e+01    1.331011e+03
  2.383148e+01    1.326217e+03
  2.388448e+01    1.319644e+03
  2.393749e+01    1.318097e+03
  2.399049e+01    1.314228e+03
  2.404349e+01    1.311611e+03
  2.409650e+01    1.308278e+03
  2.414950e+01    1.300390e+03
  2.420251e+01    1.295449e+03
  2.425551e+01    1.288673e+03
  2.430851e+01    1.285264e+03
  2.436152e+01    1.278679e+03
  2.441452e+01    1.273442e+03
  2.446753e+01    1.265607e+03
  2.452053e+01    1.257246e+03
  2.457353e+01    1.252491e+03
  2.462654e+01    1.252009e+03
  2.467954e+01    1.241638e+03
  2.473255e+01    1.231996e+03
  2.478555e+01    1.222850e+03
  2.483855e+01    1.214274e+03
  2.489156e+01    1.206999e+03
  2.494456e+01    1.193922e+03
  2.499757e+01    1.186523e+03
  2.505057e+01    1.177172e+03
  2.510358e+01    1.173748e+03
  2.515658e+01    1.166849e+03
  2.520958e+01    1.166534e+03
  2.526259e+01    1.152230e+03
  2.531559e+01    1.148848e+03
  2.536860e+01    1.144691e+03
  2.542160e+01    1.138476e+03
  2.547460e+01    1.131472e+03
  2.552761e+01    1.124026e+03
  2.558061e+01    1.125464e+03
  2.563362e+01    1.117742e+03
  2.568662e+01    1.109031e+03
  2.573962e+01    1.101831e+03
  2.579263e+01    1.091030e+03
  2.584563e+01    1.086694e+03
  2.589864e+01    1.082071e+03
  2.595164e+01    1.077452e+03
  2.600465e+01    1.080884e+03
  2.605765e+01    1.076635e+03
  2.611065e+01    1.081779e+03
  2.616366e+01    1.071137e+03
  2.621666e+01    1.063944e+03
  2.626967e+01    1.050025e+03
  2.632267e+01    1.051340e+03
  2.637567e+01    1.043385e+03
  2.642868e+01    1.016835e+03
  2.648168e+01    9.890312e+02
