# == pyFAI calibration ==
# Distance Sample to Detector: 0.2945755399789714 m
# PONI: 2.880e-01, 2.450e-01 m
# Rotations: -0.007291 -0.010887 -0.000000 rad
# 
# == Fit2d calibration ==
# Distance Sample-beamCenter: 294.601 mm
# Center: x=1437.174, y=1655.617 pix
# Tilt: 0.751 deg  TiltPlanRot: -56.193 deg
# 
# Detector Pilatus CdTe 2M	 PixelSize= 1.720e-04, 1.720e-04 m
#    Detector has a mask: True 
#    Detector has a dark current: False 
#    detector has a flat field: False 
# 
# Wavelength: 2.0732883349524408e-11 m
# Mask applied: from detector
# Dark current applied: False
# Flat field applied: False
# Polarization factor: 0.9
# Normalization factor: 1.0
# --> /gpfs/current/raw/FMue_2/FMue_2_20231024_120911_00002.dat
#        q_A^-1             I 
  3.263564e-02             nan
  8.563974e-02             nan
  1.386438e-01             nan
  1.916479e-01             nan
  2.446520e-01    3.374180e+04
  2.976561e-01    2.665110e+04
  3.506602e-01    1.439937e+04
  4.036643e-01    1.013938e+04
  4.566684e-01    8.719772e+03
  5.096725e-01    8.399769e+03
  5.626766e-01    8.253974e+03
  6.156807e-01    8.073815e+03
  6.686848e-01    8.028800e+03
  7.216890e-01    8.179071e+03
  7.746931e-01    8.225984e+03
  8.276972e-01    8.342470e+03
  8.807013e-01    8.435643e+03
  9.337054e-01    8.589578e+03
  9.867095e-01    8.745050e+03
  1.039714e+00    9.014856e+03
  1.092718e+00    9.344662e+03
  1.145722e+00    9.834951e+03
  1.198726e+00    1.045500e+04
  1.251730e+00    1.130635e+04
  1.304734e+00    1.266853e+04
  1.357738e+00    1.375154e+04
  1.410742e+00    1.398464e+04
  1.463746e+00    1.401430e+04
  1.516750e+00    1.386719e+04
  1.569755e+00    1.335970e+04
  1.622759e+00    1.268814e+04
  1.675763e+00    1.182686e+04
  1.728767e+00    1.092946e+04
  1.781771e+00    1.011701e+04
  1.834775e+00    9.442088e+03
  1.887779e+00    8.857921e+03
  1.940783e+00    8.486398e+03
  1.993787e+00    8.176520e+03
  2.046791e+00    8.110773e+03
  2.099796e+00    8.579923e+03
  2.152800e+00    1.022250e+04
  2.205804e+00    1.109523e+04
  2.258808e+00    9.415056e+03
  2.311812e+00    8.123880e+03
  2.364816e+00    7.739553e+03
  2.417820e+00    7.986820e+03
  2.470824e+00    9.476114e+03
  2.523828e+00    1.466881e+04
  2.576832e+00    1.922038e+04
  2.629837e+00    1.427035e+04
  2.682841e+00    9.538822e+03
  2.735845e+00    7.722242e+03
  2.788849e+00    6.497314e+03
  2.841853e+00    5.598265e+03
  2.894857e+00    5.197946e+03
  2.947861e+00    5.096499e+03
  3.000865e+00    5.380871e+03
  3.053869e+00    6.785734e+03
  3.106874e+00    9.237884e+03
  3.159878e+00    9.714017e+03
  3.212882e+00    8.229324e+03
  3.265886e+00    6.020694e+03
  3.318890e+00    4.869450e+03
  3.371894e+00    4.578849e+03
  3.424898e+00    4.492227e+03
  3.477902e+00    4.459194e+03
  3.530906e+00    4.448497e+03
  3.583910e+00    4.455379e+03
  3.636915e+00    4.527165e+03
  3.689919e+00    4.728073e+03
  3.742923e+00    5.269509e+03
  3.795927e+00    5.910066e+03
  3.848931e+00    5.795154e+03
  3.901935e+00    5.718342e+03
  3.954939e+00    6.767061e+03
  4.007943e+00    8.946069e+03
  4.060947e+00    9.275609e+03
  4.113951e+00    7.532547e+03
  4.166956e+00    6.439122e+03
  4.219960e+00    6.046177e+03
  4.272964e+00    6.245123e+03
  4.325968e+00    8.024380e+03
  4.378972e+00    1.220592e+04
  4.431976e+00    1.359977e+04
  4.484980e+00    1.234316e+04
  4.537984e+00    9.537984e+03
  4.590988e+00    6.654653e+03
  4.643992e+00    5.398867e+03
  4.696997e+00    4.987631e+03
  4.750001e+00    4.840809e+03
  4.803005e+00    4.834646e+03
  4.856009e+00    5.002567e+03
  4.909013e+00    5.193202e+03
  4.962017e+00    5.226961e+03
  5.015021e+00    5.475349e+03
  5.068025e+00    6.133112e+03
  5.121029e+00    6.309691e+03
  5.174033e+00    5.636708e+03
  5.227038e+00    4.895238e+03
  5.280042e+00    4.491611e+03
  5.333046e+00    4.386073e+03
  5.386050e+00    4.415397e+03
  5.439054e+00    4.254630e+03
  5.492058e+00    4.201866e+03
  5.545062e+00    3.942562e+03
  5.598066e+00    3.601733e+03
  5.651070e+00    3.461422e+03
  5.704074e+00    3.498205e+03
  5.757079e+00    3.734860e+03
  5.810083e+00    4.015953e+03
  5.863087e+00    4.152562e+03
  5.916091e+00    4.660110e+03
  5.969095e+00    5.088523e+03
  6.022099e+00    4.578028e+03
  6.075103e+00    4.035052e+03
  6.128107e+00    3.900501e+03
  6.181111e+00    4.047358e+03
  6.234115e+00    4.112848e+03
  6.287120e+00    3.945767e+03
  6.340124e+00    3.790328e+03
  6.393128e+00    3.645687e+03
  6.446132e+00    3.475555e+03
  6.499136e+00    3.406058e+03
  6.552140e+00    3.492312e+03
  6.605144e+00    3.626744e+03
  6.658148e+00    3.854679e+03
  6.711152e+00    4.218612e+03
  6.764156e+00    4.165069e+03
  6.817161e+00    3.712151e+03
  6.870165e+00    3.414334e+03
  6.923169e+00    3.376497e+03
  6.976173e+00    3.373625e+03
  7.029177e+00    3.304252e+03
  7.082181e+00    3.284925e+03
  7.135185e+00    3.216034e+03
  7.188189e+00    3.113885e+03
  7.241193e+00    3.077590e+03
  7.294197e+00    3.164602e+03
  7.347202e+00    3.361473e+03
  7.400206e+00    3.558155e+03
  7.453210e+00    3.505748e+03
  7.506214e+00    3.483652e+03
  7.559218e+00    3.799787e+03
  7.612222e+00    4.110141e+03
  7.665226e+00    3.899238e+03
  7.718230e+00    3.751871e+03
  7.771234e+00    3.782248e+03
  7.824239e+00    3.617015e+03
  7.877243e+00    3.450208e+03
  7.930247e+00    3.422475e+03
  7.983251e+00    3.540518e+03
  8.036255e+00    3.630670e+03
  8.089259e+00    3.446035e+03
  8.142263e+00    3.190756e+03
  8.195267e+00    3.053337e+03
  8.248271e+00    2.992772e+03
  8.301275e+00    2.951590e+03
  8.354280e+00    2.914088e+03
  8.407284e+00    2.895560e+03
  8.460288e+00    2.905972e+03
  8.513292e+00    2.928959e+03
  8.566296e+00    2.969833e+03
  8.619300e+00    2.966619e+03
  8.672304e+00    2.926072e+03
  8.725308e+00    2.948173e+03
  8.778312e+00    2.998317e+03
  8.831316e+00    2.957671e+03
  8.884321e+00    2.893777e+03
  8.937325e+00    2.885419e+03
  8.990329e+00    2.899985e+03
  9.043333e+00    2.909547e+03
  9.096337e+00    2.941571e+03
  9.149341e+00    2.988285e+03
  9.202345e+00    2.923289e+03
  9.255349e+00    2.802193e+03
  9.308353e+00    2.727703e+03
  9.361357e+00    2.679888e+03
  9.414362e+00    2.633972e+03
  9.467366e+00    2.655094e+03
  9.520370e+00    2.712944e+03
  9.573374e+00    2.772246e+03
  9.626378e+00    2.829954e+03
  9.679382e+00    2.838351e+03
  9.732386e+00    2.797065e+03
  9.785390e+00    2.792399e+03
  9.838394e+00    2.781501e+03
  9.891398e+00    2.716596e+03
  9.944403e+00    2.670528e+03
  9.997407e+00    2.677330e+03
  1.005041e+01    2.714076e+03
  1.010341e+01    2.746836e+03
  1.015642e+01    2.752493e+03
  1.020942e+01    2.664919e+03
  1.026243e+01    2.558918e+03
  1.031543e+01    2.510224e+03
  1.036844e+01    2.501548e+03
  1.042144e+01    2.488790e+03
  1.047444e+01    2.502304e+03
  1.052745e+01    2.520660e+03
  1.058045e+01    2.546658e+03
  1.063346e+01    2.536271e+03
  1.068646e+01    2.504551e+03
  1.073946e+01    2.481676e+03
  1.079247e+01    2.465170e+03
  1.084547e+01    2.444802e+03
  1.089848e+01    2.454511e+03
  1.095148e+01    2.502520e+03
  1.100448e+01    2.558456e+03
  1.105749e+01    2.578524e+03
  1.111049e+01    2.533518e+03
  1.116350e+01    2.462852e+03
  1.121650e+01    2.420828e+03
  1.126951e+01    2.403657e+03
  1.132251e+01    2.403905e+03
  1.137551e+01    2.429966e+03
  1.142852e+01    2.472765e+03
  1.148152e+01    2.505843e+03
  1.153453e+01    2.526878e+03
  1.158753e+01    2.551664e+03
  1.164053e+01    2.540813e+03
  1.169354e+01    2.477094e+03
  1.174654e+01    2.453003e+03
  1.179955e+01    2.443171e+03
  1.185255e+01    2.458993e+03
  1.190555e+01    2.453243e+03
  1.195856e+01    2.407485e+03
  1.201156e+01    2.355406e+03
  1.206457e+01    2.324038e+03
  1.211757e+01    2.328936e+03
  1.217057e+01    2.350125e+03
  1.222358e+01    2.383721e+03
  1.227658e+01    2.410705e+03
  1.232959e+01    2.397866e+03
  1.238259e+01    2.354202e+03
  1.243560e+01    2.329606e+03
  1.248860e+01    2.314371e+03
  1.254160e+01    2.319840e+03
  1.259461e+01    2.327768e+03
  1.264761e+01    2.329385e+03
  1.270062e+01    2.316440e+03
  1.275362e+01    2.297546e+03
  1.280662e+01    2.277577e+03
  1.285963e+01    2.266192e+03
  1.291263e+01    2.258040e+03
  1.296564e+01    2.259178e+03
  1.301864e+01    2.267986e+03
  1.307164e+01    2.276253e+03
  1.312465e+01    2.282283e+03
  1.317765e+01    2.284909e+03
  1.323066e+01    2.268328e+03
  1.328366e+01    2.267411e+03
  1.333667e+01    2.289581e+03
  1.338967e+01    2.316688e+03
  1.344267e+01    2.324541e+03
  1.349568e+01    2.282884e+03
  1.354868e+01    2.243371e+03
  1.360169e+01    2.221333e+03
  1.365469e+01    2.217762e+03
  1.370769e+01    2.228566e+03
  1.376070e+01    2.228844e+03
  1.381370e+01    2.216419e+03
  1.386671e+01    2.196621e+03
  1.391971e+01    2.177224e+03
  1.397271e+01    2.167689e+03
  1.402572e+01    2.167322e+03
  1.407872e+01    2.171110e+03
  1.413173e+01    2.167916e+03
  1.418473e+01    2.153421e+03
  1.423773e+01    2.137226e+03
  1.429074e+01    2.122619e+03
  1.434374e+01    2.126158e+03
  1.439675e+01    2.125531e+03
  1.444975e+01    2.128713e+03
  1.450276e+01    2.120884e+03
  1.455576e+01    2.110452e+03
  1.460876e+01    2.102765e+03
  1.466177e+01    2.095033e+03
  1.471477e+01    2.098088e+03
  1.476778e+01    2.103487e+03
  1.482078e+01    2.095408e+03
  1.487378e+01    2.081966e+03
  1.492679e+01    2.067731e+03
  1.497979e+01    2.062746e+03
  1.503280e+01    2.064725e+03
  1.508580e+01    2.067398e+03
  1.513880e+01    2.067689e+03
  1.519181e+01    2.077528e+03
  1.524481e+01    2.101531e+03
  1.529782e+01    2.091844e+03
  1.535082e+01    2.094283e+03
  1.540382e+01    2.097372e+03
  1.545683e+01    2.084928e+03
  1.550983e+01    2.078417e+03
  1.556284e+01    2.066308e+03
  1.561584e+01    2.058138e+03
  1.566885e+01    2.061145e+03
  1.572185e+01    2.069198e+03
  1.577485e+01    2.072377e+03
  1.582786e+01    2.067946e+03
  1.588086e+01    2.056236e+03
  1.593387e+01    2.048915e+03
  1.598687e+01    2.041125e+03
  1.603987e+01    2.030343e+03
  1.609288e+01    2.016115e+03
  1.614588e+01    2.005560e+03
  1.619889e+01    2.007294e+03
  1.625189e+01    2.011476e+03
  1.630489e+01    2.010162e+03
  1.635790e+01    2.005663e+03
  1.641090e+01    2.000991e+03
  1.646391e+01    1.996954e+03
  1.651691e+01    2.005640e+03
  1.656992e+01    2.008588e+03
  1.662292e+01    2.007846e+03
  1.667592e+01    2.003807e+03
  1.672893e+01    1.995181e+03
  1.678193e+01    1.993332e+03
  1.683494e+01    1.990163e+03
  1.688794e+01    1.992574e+03
  1.694094e+01    1.992291e+03
  1.699395e+01    1.990364e+03
  1.704695e+01    1.990070e+03
  1.709996e+01    1.990864e+03
  1.715296e+01    1.987734e+03
  1.720596e+01    1.981891e+03
  1.725897e+01    1.972000e+03
  1.731197e+01    1.963740e+03
  1.736498e+01    1.956781e+03
  1.741798e+01    1.953073e+03
  1.747098e+01    1.953224e+03
  1.752399e+01    1.949910e+03
  1.757699e+01    1.946561e+03
  1.763000e+01    1.944458e+03
  1.768300e+01    1.944733e+03
  1.773601e+01    1.946198e+03
  1.778901e+01    1.940669e+03
  1.784201e+01    1.934030e+03
  1.789502e+01    1.931979e+03
  1.794802e+01    1.928636e+03
  1.800103e+01    1.928994e+03
  1.805403e+01    1.926010e+03
  1.810703e+01    1.916741e+03
  1.816004e+01    1.909038e+03
  1.821304e+01    1.906131e+03
  1.826605e+01    1.906186e+03
  1.831905e+01    1.895019e+03
  1.837205e+01    1.890498e+03
  1.842506e+01    1.887283e+03
  1.847806e+01    1.886581e+03
  1.853107e+01    1.886587e+03
  1.858407e+01    1.882354e+03
  1.863708e+01    1.884042e+03
  1.869008e+01    1.900667e+03
  1.874308e+01    1.892189e+03
  1.879609e+01    1.887534e+03
  1.884909e+01    1.883515e+03
  1.890210e+01    1.880006e+03
  1.895510e+01    1.875051e+03
  1.900810e+01    1.875904e+03
  1.906111e+01    1.871579e+03
  1.911411e+01    1.865924e+03
  1.916712e+01    1.865002e+03
  1.922012e+01    1.862980e+03
  1.927312e+01    1.855135e+03
  1.932613e+01    1.853498e+03
  1.937913e+01    1.846962e+03
  1.943214e+01    1.844371e+03
  1.948514e+01    1.841221e+03
  1.953814e+01    1.837297e+03
  1.959115e+01    1.832508e+03
  1.964415e+01    1.827951e+03
  1.969716e+01    1.824123e+03
  1.975016e+01    1.822333e+03
  1.980317e+01    1.818352e+03
  1.985617e+01    1.814491e+03
  1.990917e+01    1.808545e+03
  1.996218e+01    1.804460e+03
  2.001518e+01    1.803323e+03
  2.006819e+01    1.797354e+03
  2.012119e+01    1.791651e+03
  2.017419e+01    1.789620e+03
  2.022720e+01    1.785556e+03
  2.028020e+01    1.777077e+03
  2.033321e+01    1.771594e+03
  2.038621e+01    1.764468e+03
  2.043921e+01    1.760460e+03
  2.049222e+01    1.756050e+03
  2.054522e+01    1.750176e+03
  2.059823e+01    1.747470e+03
  2.065123e+01    1.741137e+03
  2.070424e+01    1.736462e+03
  2.075724e+01    1.732937e+03
  2.081024e+01    1.743038e+03
  2.086325e+01    1.735085e+03
  2.091625e+01    1.721057e+03
  2.096926e+01    1.707495e+03
  2.102226e+01    1.695941e+03
  2.107526e+01    1.687460e+03
  2.112827e+01    1.678121e+03
  2.118127e+01    1.667700e+03
  2.123428e+01    1.657008e+03
  2.128728e+01    1.646461e+03
  2.134028e+01    1.635358e+03
  2.139329e+01    1.626369e+03
  2.144629e+01    1.616227e+03
  2.149930e+01    1.609856e+03
  2.155230e+01    1.602514e+03
  2.160530e+01    1.596568e+03
  2.165831e+01    1.586325e+03
  2.171131e+01    1.580017e+03
  2.176432e+01    1.574240e+03
  2.181732e+01    1.564573e+03
  2.187033e+01    1.556033e+03
  2.192333e+01    1.548745e+03
  2.197633e+01    1.539626e+03
  2.202934e+01    1.531709e+03
  2.208234e+01    1.521019e+03
  2.213535e+01    1.512066e+03
  2.218835e+01    1.503555e+03
  2.224135e+01    1.494651e+03
  2.229436e+01    1.485367e+03
  2.234736e+01    1.477818e+03
  2.240037e+01    1.468296e+03
  2.245337e+01    1.461723e+03
  2.250637e+01    1.453639e+03
  2.255938e+01    1.444536e+03
  2.261238e+01    1.446808e+03
  2.266539e+01    1.446930e+03
  2.271839e+01    1.448394e+03
  2.277140e+01    1.447706e+03
  2.282440e+01    1.447074e+03
  2.287740e+01    1.443509e+03
  2.293041e+01    1.443791e+03
  2.298341e+01    1.441230e+03
  2.303642e+01    1.440657e+03
  2.308942e+01    1.436982e+03
  2.314242e+01    1.435738e+03
  2.319543e+01    1.432775e+03
  2.324843e+01    1.424734e+03
  2.330144e+01    1.423787e+03
  2.335444e+01    1.421232e+03
  2.340744e+01    1.422327e+03
  2.346045e+01    1.420386e+03
  2.351345e+01    1.417856e+03
  2.356646e+01    1.412725e+03
  2.361946e+01    1.412241e+03
  2.367246e+01    1.411676e+03
  2.372547e+01    1.405612e+03
  2.377847e+01    1.403308e+03
  2.383148e+01    1.399937e+03
  2.388448e+01    1.394318e+03
  2.393749e+01    1.393818e+03
  2.399049e+01    1.393632e+03
  2.404349e+01    1.392880e+03
  2.409650e+01    1.386956e+03
  2.414950e+01    1.386565e+03
  2.420251e+01    1.382253e+03
  2.425551e+01    1.376663e+03
  2.430851e+01    1.372983e+03
  2.436152e+01    1.368494e+03
  2.441452e+01    1.363833e+03
  2.446753e+01    1.359542e+03
  2.452053e+01    1.352777e+03
  2.457353e+01    1.353320e+03
  2.462654e+01    1.350059e+03
  2.467954e+01    1.340489e+03
  2.473255e+01    1.329394e+03
  2.478555e+01    1.319741e+03
  2.483855e+01    1.308196e+03
  2.489156e+01    1.301899e+03
  2.494456e+01    1.294638e+03
  2.499757e+01    1.283688e+03
  2.505057e+01    1.272454e+03
  2.510358e+01    1.265349e+03
  2.515658e+01    1.258615e+03
  2.520958e+01    1.254322e+03
  2.526259e+01    1.241595e+03
  2.531559e+01    1.236819e+03
  2.536860e+01    1.230697e+03
  2.542160e+01    1.221498e+03
  2.547460e+01    1.209926e+03
  2.552761e+01    1.201143e+03
  2.558061e+01    1.194898e+03
  2.563362e+01    1.194266e+03
  2.568662e+01    1.181891e+03
  2.573962e+01    1.172909e+03
  2.579263e+01    1.163916e+03
  2.584563e+01    1.156567e+03
  2.589864e+01    1.153636e+03
  2.595164e+01    1.148341e+03
  2.600465e+01    1.149815e+03
  2.605765e+01    1.143573e+03
  2.611065e+01    1.139613e+03
  2.616366e+01    1.136642e+03
  2.621666e+01    1.130485e+03
  2.626967e+01    1.113897e+03
  2.632267e+01    1.116970e+03
  2.637567e+01    1.108435e+03
  2.642868e+01    1.100693e+03
  2.648168e+01    1.094123e+03
