# == pyFAI calibration ==
# Distance Sample to Detector: 0.2945755399789714 m
# PONI: 2.880e-01, 2.450e-01 m
# Rotations: -0.007291 -0.010887 -0.000000 rad
# 
# == Fit2d calibration ==
# Distance Sample-beamCenter: 294.601 mm
# Center: x=1437.174, y=1655.617 pix
# Tilt: 0.751 deg  TiltPlanRot: -56.193 deg
# 
# Detector Pilatus CdTe 2M	 PixelSize= 1.720e-04, 1.720e-04 m
#    Detector has a mask: True 
#    Detector has a dark current: False 
#    detector has a flat field: False 
# 
# Wavelength: 2.0732883349524408e-11 m
# Mask applied: from detector
# Dark current applied: False
# Flat field applied: False
# Polarization factor: 0.9
# Normalization factor: 1.0
# --> /gpfs/current/raw/FMue_2/FMue_2_20231024_120911_00035.dat
#        q_A^-1             I 
  3.263564e-02             nan
  8.563974e-02             nan
  1.386438e-01             nan
  1.916479e-01             nan
  2.446520e-01    3.521572e+04
  2.976561e-01    2.756836e+04
  3.506602e-01    1.484361e+04
  4.036643e-01    1.046321e+04
  4.566684e-01    8.979571e+03
  5.096725e-01    8.645245e+03
  5.626766e-01    8.450090e+03
  6.156807e-01    8.218114e+03
  6.686848e-01    8.144916e+03
  7.216890e-01    8.228782e+03
  7.746931e-01    8.267946e+03
  8.276972e-01    8.357544e+03
  8.807013e-01    8.434733e+03
  9.337054e-01    8.583097e+03
  9.867095e-01    8.729197e+03
  1.039714e+00    8.985741e+03
  1.092718e+00    9.312688e+03
  1.145722e+00    9.798480e+03
  1.198726e+00    1.040350e+04
  1.251730e+00    1.125673e+04
  1.304734e+00    1.260817e+04
  1.357738e+00    1.365008e+04
  1.410742e+00    1.388102e+04
  1.463746e+00    1.391732e+04
  1.516750e+00    1.376951e+04
  1.569755e+00    1.326019e+04
  1.622759e+00    1.258517e+04
  1.675763e+00    1.172538e+04
  1.728767e+00    1.081825e+04
  1.781771e+00    1.000587e+04
  1.834775e+00    9.337958e+03
  1.887779e+00    8.755030e+03
  1.940783e+00    8.379437e+03
  1.993787e+00    8.092949e+03
  2.046791e+00    8.025873e+03
  2.099796e+00    8.520264e+03
  2.152800e+00    1.017170e+04
  2.205804e+00    1.091427e+04
  2.258808e+00    9.222215e+03
  2.311812e+00    8.002465e+03
  2.364816e+00    7.656056e+03
  2.417820e+00    7.937340e+03
  2.470824e+00    9.516822e+03
  2.523828e+00    1.485188e+04
  2.576832e+00    1.895221e+04
  2.629837e+00    1.381817e+04
  2.682841e+00    9.355944e+03
  2.735845e+00    7.599079e+03
  2.788849e+00    6.402828e+03
  2.841853e+00    5.554341e+03
  2.894857e+00    5.179399e+03
  2.947861e+00    5.089140e+03
  3.000865e+00    5.403609e+03
  3.053869e+00    6.870974e+03
  3.106874e+00    9.194610e+03
  3.159878e+00    9.492882e+03
  3.212882e+00    8.009025e+03
  3.265886e+00    5.897374e+03
  3.318890e+00    4.838124e+03
  3.371894e+00    4.580595e+03
  3.424898e+00    4.491870e+03
  3.477902e+00    4.469706e+03
  3.530906e+00    4.453331e+03
  3.583910e+00    4.465312e+03
  3.636915e+00    4.543839e+03
  3.689919e+00    4.757402e+03
  3.742923e+00    5.314294e+03
  3.795927e+00    5.908167e+03
  3.848931e+00    5.751375e+03
  3.901935e+00    5.733226e+03
  3.954939e+00    6.862815e+03
  4.007943e+00    8.958056e+03
  4.060947e+00    9.031227e+03
  4.113951e+00    7.340339e+03
  4.166956e+00    6.363645e+03
  4.219960e+00    6.033871e+03
  4.272964e+00    6.312353e+03
  4.325968e+00    8.254406e+03
  4.378972e+00    1.228143e+04
  4.431976e+00    1.320265e+04
  4.484980e+00    1.189685e+04
  4.537984e+00    9.115074e+03
  4.590988e+00    6.491518e+03
  4.643992e+00    5.383170e+03
  4.696997e+00    5.011656e+03
  4.750001e+00    4.879635e+03
  4.803005e+00    4.880726e+03
  4.856009e+00    5.044543e+03
  4.909013e+00    5.209980e+03
  4.962017e+00    5.239370e+03
  5.015021e+00    5.516668e+03
  5.068025e+00    6.143417e+03
  5.121029e+00    6.209212e+03
  5.174033e+00    5.525373e+03
  5.227038e+00    4.836238e+03
  5.280042e+00    4.472367e+03
  5.333046e+00    4.392936e+03
  5.386050e+00    4.403156e+03
  5.439054e+00    4.234979e+03
  5.492058e+00    4.171575e+03
  5.545062e+00    3.902861e+03
  5.598066e+00    3.595775e+03
  5.651070e+00    3.473553e+03
  5.704074e+00    3.528927e+03
  5.757079e+00    3.763506e+03
  5.810083e+00    3.996494e+03
  5.863087e+00    4.140640e+03
  5.916091e+00    4.664542e+03
  5.969095e+00    4.967738e+03
  6.022099e+00    4.424908e+03
  6.075103e+00    3.966626e+03
  6.128107e+00    3.882292e+03
  6.181111e+00    4.035186e+03
  6.234115e+00    4.048927e+03
  6.287120e+00    3.889208e+03
  6.340124e+00    3.746794e+03
  6.393128e+00    3.611735e+03
  6.446132e+00    3.458405e+03
  6.499136e+00    3.413332e+03
  6.552140e+00    3.501451e+03
  6.605144e+00    3.628085e+03
  6.658148e+00    3.866018e+03
  6.711152e+00    4.179076e+03
  6.764156e+00    4.057214e+03
  6.817161e+00    3.633904e+03
  6.870165e+00    3.397054e+03
  6.923169e+00    3.378597e+03
  6.976173e+00    3.361038e+03
  7.029177e+00    3.296415e+03
  7.082181e+00    3.273669e+03
  7.135185e+00    3.197396e+03
  7.188189e+00    3.112725e+03
  7.241193e+00    3.095801e+03
  7.294197e+00    3.188171e+03
  7.347202e+00    3.380462e+03
  7.400206e+00    3.531376e+03
  7.453210e+00    3.463192e+03
  7.506214e+00    3.481210e+03
  7.559218e+00    3.807616e+03
  7.612222e+00    4.018446e+03
  7.665226e+00    3.780037e+03
  7.718230e+00    3.694247e+03
  7.771234e+00    3.700503e+03
  7.824239e+00    3.531297e+03
  7.877243e+00    3.405741e+03
  7.930247e+00    3.395340e+03
  7.983251e+00    3.509571e+03
  8.036255e+00    3.554008e+03
  8.089259e+00    3.360985e+03
  8.142263e+00    3.145343e+03
  8.195267e+00    3.035672e+03
  8.248271e+00    2.986575e+03
  8.301275e+00    2.948284e+03
  8.354280e+00    2.914566e+03
  8.407284e+00    2.896646e+03
  8.460288e+00    2.908355e+03
  8.513292e+00    2.926258e+03
  8.566296e+00    2.957305e+03
  8.619300e+00    2.948254e+03
  8.672304e+00    2.911503e+03
  8.725308e+00    2.945603e+03
  8.778312e+00    2.978167e+03
  8.831316e+00    2.924021e+03
  8.884321e+00    2.875455e+03
  8.937325e+00    2.870740e+03
  8.990329e+00    2.879680e+03
  9.043333e+00    2.885042e+03
  9.096337e+00    2.920129e+03
  9.149341e+00    2.948191e+03
  9.202345e+00    2.873551e+03
  9.255349e+00    2.769557e+03
  9.308353e+00    2.710943e+03
  9.361357e+00    2.665567e+03
  9.414362e+00    2.628295e+03
  9.467366e+00    2.654217e+03
  9.520370e+00    2.701493e+03
  9.573374e+00    2.748238e+03
  9.626378e+00    2.793638e+03
  9.679382e+00    2.791761e+03
  9.732386e+00    2.755959e+03
  9.785390e+00    2.756037e+03
  9.838394e+00    2.737189e+03
  9.891398e+00    2.676660e+03
  9.944403e+00    2.643101e+03
  9.997407e+00    2.652971e+03
  1.005041e+01    2.683634e+03
  1.010341e+01    2.707825e+03
  1.015642e+01    2.695602e+03
  1.020942e+01    2.611325e+03
  1.026243e+01    2.527097e+03
  1.031543e+01    2.494121e+03
  1.036844e+01    2.488549e+03
  1.042144e+01    2.479179e+03
  1.047444e+01    2.493735e+03
  1.052745e+01    2.507812e+03
  1.058045e+01    2.523633e+03
  1.063346e+01    2.505802e+03
  1.068646e+01    2.480300e+03
  1.073946e+01    2.462750e+03
  1.079247e+01    2.450174e+03
  1.084547e+01    2.433094e+03
  1.089848e+01    2.450900e+03
  1.095148e+01    2.489247e+03
  1.100448e+01    2.531831e+03
  1.105749e+01    2.536145e+03
  1.111049e+01    2.491405e+03
  1.116350e+01    2.439486e+03
  1.121650e+01    2.405623e+03
  1.126951e+01    2.393966e+03
  1.132251e+01    2.398413e+03
  1.137551e+01    2.419227e+03
  1.142852e+01    2.453128e+03
  1.148152e+01    2.474317e+03
  1.153453e+01    2.491373e+03
  1.158753e+01    2.509547e+03
  1.164053e+01    2.487482e+03
  1.169354e+01    2.435832e+03
  1.174654e+01    2.429700e+03
  1.179955e+01    2.422715e+03
  1.185255e+01    2.430473e+03
  1.190555e+01    2.415910e+03
  1.195856e+01    2.376828e+03
  1.201156e+01    2.337971e+03
  1.206457e+01    2.315274e+03
  1.211757e+01    2.321688e+03
  1.217057e+01    2.340073e+03
  1.222358e+01    2.365535e+03
  1.227658e+01    2.376571e+03
  1.232959e+01    2.360544e+03
  1.238259e+01    2.327883e+03
  1.243560e+01    2.309802e+03
  1.248860e+01    2.300296e+03
  1.254160e+01    2.305294e+03
  1.259461e+01    2.310186e+03
  1.264761e+01    2.309554e+03
  1.270062e+01    2.296116e+03
  1.275362e+01    2.277702e+03
  1.280662e+01    2.267668e+03
  1.285963e+01    2.255758e+03
  1.291263e+01    2.247393e+03
  1.296564e+01    2.247765e+03
  1.301864e+01    2.255623e+03
  1.307164e+01    2.259899e+03
  1.312465e+01    2.259321e+03
  1.317765e+01    2.260091e+03
  1.323066e+01    2.243991e+03
  1.328366e+01    2.246083e+03
  1.333667e+01    2.261805e+03
  1.338967e+01    2.275634e+03
  1.344267e+01    2.276506e+03
  1.349568e+01    2.243325e+03
  1.354868e+01    2.216621e+03
  1.360169e+01    2.201844e+03
  1.365469e+01    2.196310e+03
  1.370769e+01    2.206459e+03
  1.376070e+01    2.201456e+03
  1.381370e+01    2.188123e+03
  1.386671e+01    2.171240e+03
  1.391971e+01    2.155001e+03
  1.397271e+01    2.150262e+03
  1.402572e+01    2.149080e+03
  1.407872e+01    2.151225e+03
  1.413173e+01    2.143218e+03
  1.418473e+01    2.132348e+03
  1.423773e+01    2.119257e+03
  1.429074e+01    2.107646e+03
  1.434374e+01    2.110735e+03
  1.439675e+01    2.106754e+03
  1.444975e+01    2.106375e+03
  1.450276e+01    2.098665e+03
  1.455576e+01    2.087158e+03
  1.460876e+01    2.080169e+03
  1.466177e+01    2.077401e+03
  1.471477e+01    2.078223e+03
  1.476778e+01    2.081221e+03
  1.482078e+01    2.074234e+03
  1.487378e+01    2.060766e+03
  1.492679e+01    2.052423e+03
  1.497979e+01    2.046877e+03
  1.503280e+01    2.049448e+03
  1.508580e+01    2.049352e+03
  1.513880e+01    2.052855e+03
  1.519181e+01    2.056716e+03
  1.524481e+01    2.083100e+03
  1.529782e+01    2.071540e+03
  1.535082e+01    2.071096e+03
  1.540382e+01    2.067520e+03
  1.545683e+01    2.055457e+03
  1.550983e+01    2.052549e+03
  1.556284e+01    2.045741e+03
  1.561584e+01    2.041597e+03
  1.566885e+01    2.040887e+03
  1.572185e+01    2.045230e+03
  1.577485e+01    2.047788e+03
  1.582786e+01    2.039487e+03
  1.588086e+01    2.030329e+03
  1.593387e+01    2.025187e+03
  1.598687e+01    2.019474e+03
  1.603987e+01    2.010294e+03
  1.609288e+01    1.998869e+03
  1.614588e+01    1.989775e+03
  1.619889e+01    1.990415e+03
  1.625189e+01    1.994752e+03
  1.630489e+01    1.991934e+03
  1.635790e+01    1.988536e+03
  1.641090e+01    1.984891e+03
  1.646391e+01    1.981523e+03
  1.651691e+01    1.986669e+03
  1.656992e+01    1.986275e+03
  1.662292e+01    1.983203e+03
  1.667592e+01    1.980997e+03
  1.672893e+01    1.972520e+03
  1.678193e+01    1.972255e+03
  1.683494e+01    1.967567e+03
  1.688794e+01    1.968747e+03
  1.694094e+01    1.969289e+03
  1.699395e+01    1.965724e+03
  1.704695e+01    1.963567e+03
  1.709996e+01    1.963305e+03
  1.715296e+01    1.958803e+03
  1.720596e+01    1.955133e+03
  1.725897e+01    1.944790e+03
  1.731197e+01    1.939866e+03
  1.736498e+01    1.934547e+03
  1.741798e+01    1.933642e+03
  1.747098e+01    1.931613e+03
  1.752399e+01    1.929779e+03
  1.757699e+01    1.923995e+03
  1.763000e+01    1.923665e+03
  1.768300e+01    1.923931e+03
  1.773601e+01    1.921232e+03
  1.778901e+01    1.917090e+03
  1.784201e+01    1.909741e+03
  1.789502e+01    1.907997e+03
  1.794802e+01    1.902859e+03
  1.800103e+01    1.902573e+03
  1.805403e+01    1.898043e+03
  1.810703e+01    1.888801e+03
  1.816004e+01    1.883252e+03
  1.821304e+01    1.880725e+03
  1.826605e+01    1.882999e+03
  1.831905e+01    1.873070e+03
  1.837205e+01    1.868944e+03
  1.842506e+01    1.866335e+03
  1.847806e+01    1.864661e+03
  1.853107e+01    1.862656e+03
  1.858407e+01    1.859985e+03
  1.863708e+01    1.861239e+03
  1.869008e+01    1.879008e+03
  1.874308e+01    1.868991e+03
  1.879609e+01    1.863698e+03
  1.884909e+01    1.858623e+03
  1.890210e+01    1.855678e+03
  1.895510e+01    1.850927e+03
  1.900810e+01    1.849542e+03
  1.906111e+01    1.845483e+03
  1.911411e+01    1.839586e+03
  1.916712e+01    1.836805e+03
  1.922012e+01    1.834955e+03
  1.927312e+01    1.827681e+03
  1.932613e+01    1.824914e+03
  1.937913e+01    1.819159e+03
  1.943214e+01    1.815781e+03
  1.948514e+01    1.812048e+03
  1.953814e+01    1.807993e+03
  1.959115e+01    1.803792e+03
  1.964415e+01    1.798273e+03
  1.969716e+01    1.796604e+03
  1.975016e+01    1.791836e+03
  1.980317e+01    1.789347e+03
  1.985617e+01    1.784529e+03
  1.990917e+01    1.779675e+03
  1.996218e+01    1.774971e+03
  2.001518e+01    1.771786e+03
  2.006819e+01    1.765780e+03
  2.012119e+01    1.761124e+03
  2.017419e+01    1.756345e+03
  2.022720e+01    1.752560e+03
  2.028020e+01    1.744210e+03
  2.033321e+01    1.738594e+03
  2.038621e+01    1.731185e+03
  2.043921e+01    1.728811e+03
  2.049222e+01    1.724642e+03
  2.054522e+01    1.717839e+03
  2.059823e+01    1.715798e+03
  2.065123e+01    1.709476e+03
  2.070424e+01    1.703716e+03
  2.075724e+01    1.701525e+03
  2.081024e+01    1.709610e+03
  2.086325e+01    1.702181e+03
  2.091625e+01    1.687214e+03
  2.096926e+01    1.672380e+03
  2.102226e+01    1.663114e+03
  2.107526e+01    1.652923e+03
  2.112827e+01    1.642759e+03
  2.118127e+01    1.633599e+03
  2.123428e+01    1.622971e+03
  2.128728e+01    1.613680e+03
  2.134028e+01    1.604705e+03
  2.139329e+01    1.594143e+03
  2.144629e+01    1.585970e+03
  2.149930e+01    1.578109e+03
  2.155230e+01    1.569800e+03
  2.160530e+01    1.563558e+03
  2.165831e+01    1.553052e+03
  2.171131e+01    1.545506e+03
  2.176432e+01    1.542712e+03
  2.181732e+01    1.532309e+03
  2.187033e+01    1.522455e+03
  2.192333e+01    1.516106e+03
  2.197633e+01    1.506810e+03
  2.202934e+01    1.497766e+03
  2.208234e+01    1.486964e+03
  2.213535e+01    1.479729e+03
  2.218835e+01    1.468985e+03
  2.224135e+01    1.461117e+03
  2.229436e+01    1.453541e+03
  2.234736e+01    1.447738e+03
  2.240037e+01    1.437164e+03
  2.245337e+01    1.429298e+03
  2.250637e+01    1.421742e+03
  2.255938e+01    1.413487e+03
  2.261238e+01    1.416436e+03
  2.266539e+01    1.413946e+03
  2.271839e+01    1.417089e+03
  2.277140e+01    1.414774e+03
  2.282440e+01    1.415485e+03
  2.287740e+01    1.413278e+03
  2.293041e+01    1.412998e+03
  2.298341e+01    1.409234e+03
  2.303642e+01    1.409286e+03
  2.308942e+01    1.406326e+03
  2.314242e+01    1.403636e+03
  2.319543e+01    1.400648e+03
  2.324843e+01    1.395866e+03
  2.330144e+01    1.392531e+03
  2.335444e+01    1.390991e+03
  2.340744e+01    1.390031e+03
  2.346045e+01    1.389493e+03
  2.351345e+01    1.387038e+03
  2.356646e+01    1.382859e+03
  2.361946e+01    1.382721e+03
  2.367246e+01    1.381382e+03
  2.372547e+01    1.376052e+03
  2.377847e+01    1.372589e+03
  2.383148e+01    1.368227e+03
  2.388448e+01    1.364581e+03
  2.393749e+01    1.362010e+03
  2.399049e+01    1.362165e+03
  2.404349e+01    1.362830e+03
  2.409650e+01    1.357122e+03
  2.414950e+01    1.352852e+03
  2.420251e+01    1.346492e+03
  2.425551e+01    1.343174e+03
  2.430851e+01    1.340348e+03
  2.436152e+01    1.335199e+03
  2.441452e+01    1.328341e+03
  2.446753e+01    1.323677e+03
  2.452053e+01    1.317307e+03
  2.457353e+01    1.314678e+03
  2.462654e+01    1.311474e+03
  2.467954e+01    1.302431e+03
  2.473255e+01    1.294345e+03
  2.478555e+01    1.285584e+03
  2.483855e+01    1.275416e+03
  2.489156e+01    1.265844e+03
  2.494456e+01    1.256690e+03
  2.499757e+01    1.245447e+03
  2.505057e+01    1.233352e+03
  2.510358e+01    1.228744e+03
  2.515658e+01    1.223376e+03
  2.520958e+01    1.220521e+03
  2.526259e+01    1.206825e+03
  2.531559e+01    1.201207e+03
  2.536860e+01    1.196514e+03
  2.542160e+01    1.188446e+03
  2.547460e+01    1.177646e+03
  2.552761e+01    1.169362e+03
  2.558061e+01    1.169611e+03
  2.563362e+01    1.160811e+03
  2.568662e+01    1.153905e+03
  2.573962e+01    1.146316e+03
  2.579263e+01    1.136635e+03
  2.584563e+01    1.127891e+03
  2.589864e+01    1.121398e+03
  2.595164e+01    1.118824e+03
  2.600465e+01    1.120111e+03
  2.605765e+01    1.116225e+03
  2.611065e+01    1.111555e+03
  2.616366e+01    1.109695e+03
  2.621666e+01    1.101331e+03
  2.626967e+01    1.093464e+03
  2.632267e+01    1.093969e+03
  2.637567e+01    1.075118e+03
  2.642868e+01    1.059217e+03
  2.648168e+01    1.059637e+03
