# == pyFAI calibration ==
# Distance Sample to Detector: 0.2945755399789714 m
# PONI: 2.880e-01, 2.450e-01 m
# Rotations: -0.007291 -0.010887 -0.000000 rad
# 
# == Fit2d calibration ==
# Distance Sample-beamCenter: 294.601 mm
# Center: x=1437.174, y=1655.617 pix
# Tilt: 0.751 deg  TiltPlanRot: -56.193 deg
# 
# Detector Pilatus CdTe 2M	 PixelSize= 1.720e-04, 1.720e-04 m
#    Detector has a mask: True 
#    Detector has a dark current: False 
#    detector has a flat field: False 
# 
# Wavelength: 2.0732883349524408e-11 m
# Mask applied: from detector
# Dark current applied: False
# Flat field applied: False
# Polarization factor: 0.9
# Normalization factor: 1.0
# --> /gpfs/current/raw/FMue_2/FMue_2_20231024_120911_00280.dat
#        q_A^-1             I 
  3.263564e-02             nan
  8.563974e-02             nan
  1.386438e-01             nan
  1.916479e-01             nan
  2.446520e-01    3.792935e+04
  2.976561e-01    2.956538e+04
  3.506602e-01    1.589102e+04
  4.036643e-01    1.114612e+04
  4.566684e-01    9.496742e+03
  5.096725e-01    9.045757e+03
  5.626766e-01    8.719236e+03
  6.156807e-01    8.359413e+03
  6.686848e-01    8.181373e+03
  7.216890e-01    8.225552e+03
  7.746931e-01    8.234974e+03
  8.276972e-01    8.310240e+03
  8.807013e-01    8.371243e+03
  9.337054e-01    8.516034e+03
  9.867095e-01    8.673156e+03
  1.039714e+00    8.923099e+03
  1.092718e+00    9.258477e+03
  1.145722e+00    9.737439e+03
  1.198726e+00    1.032140e+04
  1.251730e+00    1.102662e+04
  1.304734e+00    1.191629e+04
  1.357738e+00    1.278521e+04
  1.410742e+00    1.347311e+04
  1.463746e+00    1.380770e+04
  1.516750e+00    1.376336e+04
  1.569755e+00    1.327247e+04
  1.622759e+00    1.262216e+04
  1.675763e+00    1.175979e+04
  1.728767e+00    1.086474e+04
  1.781771e+00    1.007163e+04
  1.834775e+00    9.396318e+03
  1.887779e+00    8.825449e+03
  1.940783e+00    8.464728e+03
  1.993787e+00    8.146806e+03
  2.046791e+00    7.957757e+03
  2.099796e+00    7.890006e+03
  2.152800e+00    7.896006e+03
  2.205804e+00    7.947349e+03
  2.258808e+00    7.974043e+03
  2.311812e+00    7.960293e+03
  2.364816e+00    8.003992e+03
  2.417820e+00    8.291501e+03
  2.470824e+00    8.928573e+03
  2.523828e+00    1.004140e+04
  2.576832e+00    1.098139e+04
  2.629837e+00    9.735613e+03
  2.682841e+00    8.140029e+03
  2.735845e+00    7.574082e+03
  2.788849e+00    6.960747e+03
  2.841853e+00    6.678313e+03
  2.894857e+00    7.379318e+03
  2.947861e+00    9.567160e+03
  3.000865e+00    1.194550e+04
  3.053869e+00    1.203125e+04
  3.106874e+00    1.038573e+04
  3.159878e+00    9.551634e+03
  3.212882e+00    8.279221e+03
  3.265886e+00    6.341104e+03
  3.318890e+00    5.484725e+03
  3.371894e+00    5.335794e+03
  3.424898e+00    5.513005e+03
  3.477902e+00    5.912113e+03
  3.530906e+00    5.886516e+03
  3.583910e+00    5.333144e+03
  3.636915e+00    4.961694e+03
  3.689919e+00    4.856568e+03
  3.742923e+00    4.876212e+03
  3.795927e+00    4.963798e+03
  3.848931e+00    5.075953e+03
  3.901935e+00    5.244971e+03
  3.954939e+00    5.464147e+03
  4.007943e+00    5.792353e+03
  4.060947e+00    6.213357e+03
  4.113951e+00    6.760550e+03
  4.166956e+00    7.711716e+03
  4.219960e+00    8.701495e+03
  4.272964e+00    7.947932e+03
  4.325968e+00    6.972792e+03
  4.378972e+00    7.393910e+03
  4.431976e+00    9.467376e+03
  4.484980e+00    1.051174e+04
  4.537984e+00    8.330476e+03
  4.590988e+00    6.307665e+03
  4.643992e+00    5.576820e+03
  4.696997e+00    5.389299e+03
  4.750001e+00    5.350551e+03
  4.803005e+00    5.418666e+03
  4.856009e+00    5.658562e+03
  4.909013e+00    6.182513e+03
  4.962017e+00    6.665376e+03
  5.015021e+00    6.375161e+03
  5.068025e+00    5.827808e+03
  5.121029e+00    5.658129e+03
  5.174033e+00    5.528118e+03
  5.227038e+00    5.108797e+03
  5.280042e+00    4.689546e+03
  5.333046e+00    4.427936e+03
  5.386050e+00    4.283194e+03
  5.439054e+00    4.281868e+03
  5.492058e+00    4.239137e+03
  5.545062e+00    3.955510e+03
  5.598066e+00    3.745548e+03
  5.651070e+00    3.687206e+03
  5.704074e+00    3.738103e+03
  5.757079e+00    3.954484e+03
  5.810083e+00    4.322047e+03
  5.863087e+00    4.385830e+03
  5.916091e+00    4.171146e+03
  5.969095e+00    4.106799e+03
  6.022099e+00    4.093399e+03
  6.075103e+00    4.111953e+03
  6.128107e+00    4.006588e+03
  6.181111e+00    3.853768e+03
  6.234115e+00    3.850848e+03
  6.287120e+00    3.935728e+03
  6.340124e+00    3.942161e+03
  6.393128e+00    3.892724e+03
  6.446132e+00    3.828302e+03
  6.499136e+00    3.804306e+03
  6.552140e+00    3.749704e+03
  6.605144e+00    3.755936e+03
  6.658148e+00    3.779342e+03
  6.711152e+00    3.674040e+03
  6.764156e+00    3.527375e+03
  6.817161e+00    3.412856e+03
  6.870165e+00    3.318943e+03
  6.923169e+00    3.267883e+03
  6.976173e+00    3.305741e+03
  7.029177e+00    3.374667e+03
  7.082181e+00    3.399516e+03
  7.135185e+00    3.352960e+03
  7.188189e+00    3.310409e+03
  7.241193e+00    3.334635e+03
  7.294197e+00    3.391656e+03
  7.347202e+00    3.366744e+03
  7.400206e+00    3.304643e+03
  7.453210e+00    3.274778e+03
  7.506214e+00    3.287249e+03
  7.559218e+00    3.327348e+03
  7.612222e+00    3.435561e+03
  7.665226e+00    3.627630e+03
  7.718230e+00    3.815134e+03
  7.771234e+00    3.772836e+03
  7.824239e+00    3.564820e+03
  7.877243e+00    3.391384e+03
  7.930247e+00    3.229813e+03
  7.983251e+00    3.130831e+03
  8.036255e+00    3.093578e+03
  8.089259e+00    3.079894e+03
  8.142263e+00    3.079812e+03
  8.195267e+00    3.078841e+03
  8.248271e+00    3.068965e+03
  8.301275e+00    3.053955e+03
  8.354280e+00    3.042510e+03
  8.407284e+00    3.041485e+03
  8.460288e+00    3.039216e+03
  8.513292e+00    3.024785e+03
  8.566296e+00    3.045904e+03
  8.619300e+00    3.058975e+03
  8.672304e+00    3.038654e+03
  8.725308e+00    3.020132e+03
  8.778312e+00    3.006522e+03
  8.831316e+00    3.000729e+03
  8.884321e+00    3.002817e+03
  8.937325e+00    2.993102e+03
  8.990329e+00    2.944204e+03
  9.043333e+00    2.877757e+03
  9.096337e+00    2.842366e+03
  9.149341e+00    2.822602e+03
  9.202345e+00    2.781551e+03
  9.255349e+00    2.742920e+03
  9.308353e+00    2.718449e+03
  9.361357e+00    2.711397e+03
  9.414362e+00    2.700761e+03
  9.467366e+00    2.699635e+03
  9.520370e+00    2.674228e+03
  9.573374e+00    2.644539e+03
  9.626378e+00    2.633168e+03
  9.679382e+00    2.625750e+03
  9.732386e+00    2.628968e+03
  9.785390e+00    2.625716e+03
  9.838394e+00    2.621875e+03
  9.891398e+00    2.626316e+03
  9.944403e+00    2.619959e+03
  9.997407e+00    2.603089e+03
  1.005041e+01    2.576898e+03
  1.010341e+01    2.536019e+03
  1.015642e+01    2.513529e+03
  1.020942e+01    2.503517e+03
  1.026243e+01    2.503304e+03
  1.031543e+01    2.519251e+03
  1.036844e+01    2.561172e+03
  1.042144e+01    2.571857e+03
  1.047444e+01    2.569358e+03
  1.052745e+01    2.555812e+03
  1.058045e+01    2.544115e+03
  1.063346e+01    2.525321e+03
  1.068646e+01    2.504861e+03
  1.073946e+01    2.484700e+03
  1.079247e+01    2.471152e+03
  1.084547e+01    2.459980e+03
  1.089848e+01    2.458730e+03
  1.095148e+01    2.457519e+03
  1.100448e+01    2.451939e+03
  1.105749e+01    2.448478e+03
  1.111049e+01    2.448489e+03
  1.116350e+01    2.435118e+03
  1.121650e+01    2.422890e+03
  1.126951e+01    2.408347e+03
  1.132251e+01    2.401199e+03
  1.137551e+01    2.391699e+03
  1.142852e+01    2.387584e+03
  1.148152e+01    2.384142e+03
  1.153453e+01    2.379210e+03
  1.158753e+01    2.374215e+03
  1.164053e+01    2.369632e+03
  1.169354e+01    2.370195e+03
  1.174654e+01    2.392469e+03
  1.179955e+01    2.384632e+03
  1.185255e+01    2.376979e+03
  1.190555e+01    2.362741e+03
  1.195856e+01    2.347906e+03
  1.201156e+01    2.336686e+03
  1.206457e+01    2.329728e+03
  1.211757e+01    2.334610e+03
  1.217057e+01    2.333763e+03
  1.222358e+01    2.332755e+03
  1.227658e+01    2.330146e+03
  1.232959e+01    2.330396e+03
  1.238259e+01    2.321610e+03
  1.243560e+01    2.325819e+03
  1.248860e+01    2.323922e+03
  1.254160e+01    2.329211e+03
  1.259461e+01    2.325430e+03
  1.264761e+01    2.316471e+03
  1.270062e+01    2.304194e+03
  1.275362e+01    2.293162e+03
  1.280662e+01    2.283466e+03
  1.285963e+01    2.274146e+03
  1.291263e+01    2.264312e+03
  1.296564e+01    2.254557e+03
  1.301864e+01    2.249775e+03
  1.307164e+01    2.242385e+03
  1.312465e+01    2.234769e+03
  1.317765e+01    2.229802e+03
  1.323066e+01    2.209102e+03
  1.328366e+01    2.199404e+03
  1.333667e+01    2.195035e+03
  1.338967e+01    2.189360e+03
  1.344267e+01    2.202079e+03
  1.349568e+01    2.198916e+03
  1.354868e+01    2.189914e+03
  1.360169e+01    2.178656e+03
  1.365469e+01    2.163389e+03
  1.370769e+01    2.156573e+03
  1.376070e+01    2.143999e+03
  1.381370e+01    2.137194e+03
  1.386671e+01    2.127397e+03
  1.391971e+01    2.120760e+03
  1.397271e+01    2.117110e+03
  1.402572e+01    2.110771e+03
  1.407872e+01    2.105705e+03
  1.413173e+01    2.099879e+03
  1.418473e+01    2.095980e+03
  1.423773e+01    2.093762e+03
  1.429074e+01    2.084661e+03
  1.434374e+01    2.084269e+03
  1.439675e+01    2.077556e+03
  1.444975e+01    2.077103e+03
  1.450276e+01    2.069979e+03
  1.455576e+01    2.065092e+03
  1.460876e+01    2.061684e+03
  1.466177e+01    2.057985e+03
  1.471477e+01    2.057333e+03
  1.476778e+01    2.057963e+03
  1.482078e+01    2.058269e+03
  1.487378e+01    2.051608e+03
  1.492679e+01    2.048684e+03
  1.497979e+01    2.043074e+03
  1.503280e+01    2.041860e+03
  1.508580e+01    2.040613e+03
  1.513880e+01    2.037758e+03
  1.519181e+01    2.043521e+03
  1.524481e+01    2.068105e+03
  1.529782e+01    2.049133e+03
  1.535082e+01    2.039249e+03
  1.540382e+01    2.031852e+03
  1.545683e+01    2.023746e+03
  1.550983e+01    2.026903e+03
  1.556284e+01    2.023081e+03
  1.561584e+01    2.016237e+03
  1.566885e+01    2.011684e+03
  1.572185e+01    2.010809e+03
  1.577485e+01    2.008058e+03
  1.582786e+01    2.003933e+03
  1.588086e+01    2.001146e+03
  1.593387e+01    1.999255e+03
  1.598687e+01    1.995120e+03
  1.603987e+01    1.988053e+03
  1.609288e+01    1.979807e+03
  1.614588e+01    1.974786e+03
  1.619889e+01    1.975958e+03
  1.625189e+01    1.977912e+03
  1.630489e+01    1.976434e+03
  1.635790e+01    1.971538e+03
  1.641090e+01    1.966725e+03
  1.646391e+01    1.961483e+03
  1.651691e+01    1.958656e+03
  1.656992e+01    1.952974e+03
  1.662292e+01    1.950012e+03
  1.667592e+01    1.947771e+03
  1.672893e+01    1.946060e+03
  1.678193e+01    1.945976e+03
  1.683494e+01    1.940707e+03
  1.688794e+01    1.939248e+03
  1.694094e+01    1.937429e+03
  1.699395e+01    1.931636e+03
  1.704695e+01    1.929842e+03
  1.709996e+01    1.924748e+03
  1.715296e+01    1.920898e+03
  1.720596e+01    1.918778e+03
  1.725897e+01    1.915322e+03
  1.731197e+01    1.911631e+03
  1.736498e+01    1.906323e+03
  1.741798e+01    1.906035e+03
  1.747098e+01    1.903554e+03
  1.752399e+01    1.899893e+03
  1.757699e+01    1.896346e+03
  1.763000e+01    1.892908e+03
  1.768300e+01    1.886886e+03
  1.773601e+01    1.882384e+03
  1.778901e+01    1.880249e+03
  1.784201e+01    1.872386e+03
  1.789502e+01    1.870169e+03
  1.794802e+01    1.864462e+03
  1.800103e+01    1.862390e+03
  1.805403e+01    1.858687e+03
  1.810703e+01    1.853731e+03
  1.816004e+01    1.850000e+03
  1.821304e+01    1.848783e+03
  1.826605e+01    1.851540e+03
  1.831905e+01    1.842549e+03
  1.837205e+01    1.838598e+03
  1.842506e+01    1.835742e+03
  1.847806e+01    1.833535e+03
  1.853107e+01    1.831284e+03
  1.858407e+01    1.829863e+03
  1.863708e+01    1.830632e+03
  1.869008e+01    1.844541e+03
  1.874308e+01    1.833766e+03
  1.879609e+01    1.829139e+03
  1.884909e+01    1.824520e+03
  1.890210e+01    1.820349e+03
  1.895510e+01    1.813846e+03
  1.900810e+01    1.810697e+03
  1.906111e+01    1.803988e+03
  1.911411e+01    1.796194e+03
  1.916712e+01    1.794089e+03
  1.922012e+01    1.790281e+03
  1.927312e+01    1.783676e+03
  1.932613e+01    1.779079e+03
  1.937913e+01    1.772460e+03
  1.943214e+01    1.768647e+03
  1.948514e+01    1.765370e+03
  1.953814e+01    1.759074e+03
  1.959115e+01    1.755452e+03
  1.964415e+01    1.749098e+03
  1.969716e+01    1.746754e+03
  1.975016e+01    1.740740e+03
  1.980317e+01    1.737141e+03
  1.985617e+01    1.733378e+03
  1.990917e+01    1.725015e+03
  1.996218e+01    1.720938e+03
  2.001518e+01    1.716501e+03
  2.006819e+01    1.709801e+03
  2.012119e+01    1.704071e+03
  2.017419e+01    1.698836e+03
  2.022720e+01    1.694555e+03
  2.028020e+01    1.686271e+03
  2.033321e+01    1.680522e+03
  2.038621e+01    1.675505e+03
  2.043921e+01    1.670753e+03
  2.049222e+01    1.665647e+03
  2.054522e+01    1.662097e+03
  2.059823e+01    1.656606e+03
  2.065123e+01    1.650002e+03
  2.070424e+01    1.647570e+03
  2.075724e+01    1.646276e+03
  2.081024e+01    1.653150e+03
  2.086325e+01    1.644165e+03
  2.091625e+01    1.626948e+03
  2.096926e+01    1.613801e+03
  2.102226e+01    1.603005e+03
  2.107526e+01    1.594742e+03
  2.112827e+01    1.583707e+03
  2.118127e+01    1.575283e+03
  2.123428e+01    1.565347e+03
  2.128728e+01    1.556925e+03
  2.134028e+01    1.549351e+03
  2.139329e+01    1.537562e+03
  2.144629e+01    1.528533e+03
  2.149930e+01    1.520392e+03
  2.155230e+01    1.510569e+03
  2.160530e+01    1.503443e+03
  2.165831e+01    1.493624e+03
  2.171131e+01    1.487072e+03
  2.176432e+01    1.482809e+03
  2.181732e+01    1.471421e+03
  2.187033e+01    1.462540e+03
  2.192333e+01    1.456060e+03
  2.197633e+01    1.446680e+03
  2.202934e+01    1.439459e+03
  2.208234e+01    1.429691e+03
  2.213535e+01    1.420876e+03
  2.218835e+01    1.413081e+03
  2.224135e+01    1.404933e+03
  2.229436e+01    1.395876e+03
  2.234736e+01    1.388713e+03
  2.240037e+01    1.378790e+03
  2.245337e+01    1.371550e+03
  2.250637e+01    1.363920e+03
  2.255938e+01    1.356378e+03
  2.261238e+01    1.361038e+03
  2.266539e+01    1.359142e+03
  2.271839e+01    1.360394e+03
  2.277140e+01    1.361404e+03
  2.282440e+01    1.360217e+03
  2.287740e+01    1.356733e+03
  2.293041e+01    1.357759e+03
  2.298341e+01    1.356973e+03
  2.303642e+01    1.354915e+03
  2.308942e+01    1.353212e+03
  2.314242e+01    1.350158e+03
  2.319543e+01    1.346689e+03
  2.324843e+01    1.342194e+03
  2.330144e+01    1.339835e+03
  2.335444e+01    1.340134e+03
  2.340744e+01    1.337667e+03
  2.346045e+01    1.335552e+03
  2.351345e+01    1.334108e+03
  2.356646e+01    1.329170e+03
  2.361946e+01    1.328642e+03
  2.367246e+01    1.328715e+03
  2.372547e+01    1.323309e+03
  2.377847e+01    1.317804e+03
  2.383148e+01    1.312763e+03
  2.388448e+01    1.310582e+03
  2.393749e+01    1.305750e+03
  2.399049e+01    1.302808e+03
  2.404349e+01    1.302120e+03
  2.409650e+01    1.297501e+03
  2.414950e+01    1.291304e+03
  2.420251e+01    1.283675e+03
  2.425551e+01    1.279713e+03
  2.430851e+01    1.273520e+03
  2.436152e+01    1.267200e+03
  2.441452e+01    1.259856e+03
  2.446753e+01    1.253929e+03
  2.452053e+01    1.248673e+03
  2.457353e+01    1.242425e+03
  2.462654e+01    1.241403e+03
  2.467954e+01    1.229440e+03
  2.473255e+01    1.222903e+03
  2.478555e+01    1.212873e+03
  2.483855e+01    1.202206e+03
  2.489156e+01    1.197300e+03
  2.494456e+01    1.186262e+03
  2.499757e+01    1.178799e+03
  2.505057e+01    1.169759e+03
  2.510358e+01    1.159327e+03
  2.515658e+01    1.156341e+03
  2.520958e+01    1.152154e+03
  2.526259e+01    1.144431e+03
  2.531559e+01    1.141747e+03
  2.536860e+01    1.132611e+03
  2.542160e+01    1.130333e+03
  2.547460e+01    1.120311e+03
  2.552761e+01    1.114743e+03
  2.558061e+01    1.113651e+03
  2.563362e+01    1.107877e+03
  2.568662e+01    1.097370e+03
  2.573962e+01    1.094309e+03
  2.579263e+01    1.084482e+03
  2.584563e+01    1.079407e+03
  2.589864e+01    1.075566e+03
  2.595164e+01    1.072149e+03
  2.600465e+01    1.071237e+03
  2.605765e+01    1.066949e+03
  2.611065e+01    1.066362e+03
  2.616366e+01    1.060778e+03
  2.621666e+01    1.058166e+03
  2.626967e+01    1.045003e+03
  2.632267e+01    1.042133e+03
  2.637567e+01    1.038599e+03
  2.642868e+01    1.016022e+03
  2.648168e+01    1.003343e+03
