# == pyFAI calibration ==
# Distance Sample to Detector: 0.2945755399789714 m
# PONI: 2.880e-01, 2.450e-01 m
# Rotations: -0.007291 -0.010887 -0.000000 rad
# 
# == Fit2d calibration ==
# Distance Sample-beamCenter: 294.601 mm
# Center: x=1437.174, y=1655.617 pix
# Tilt: 0.751 deg  TiltPlanRot: -56.193 deg
# 
# Detector Pilatus CdTe 2M	 PixelSize= 1.720e-04, 1.720e-04 m
#    Detector has a mask: True 
#    Detector has a dark current: False 
#    detector has a flat field: False 
# 
# Wavelength: 2.0732883349524408e-11 m
# Mask applied: from detector
# Dark current applied: False
# Flat field applied: False
# Polarization factor: 0.9
# Normalization factor: 1.0
# --> /gpfs/current/raw/FMue_2/FMue_2_20231024_120911_00215.dat
#        q_A^-1             I 
  3.263564e-02             nan
  8.563974e-02             nan
  1.386438e-01             nan
  1.916479e-01             nan
  2.446520e-01    3.870314e+04
  2.976561e-01    2.987156e+04
  3.506602e-01    1.595901e+04
  4.036643e-01    1.121403e+04
  4.566684e-01    9.596784e+03
  5.096725e-01    9.147560e+03
  5.626766e-01    8.854387e+03
  6.156807e-01    8.481213e+03
  6.686848e-01    8.307919e+03
  7.216890e-01    8.347921e+03
  7.746931e-01    8.344792e+03
  8.276972e-01    8.412265e+03
  8.807013e-01    8.473709e+03
  9.337054e-01    8.623732e+03
  9.867095e-01    8.771030e+03
  1.039714e+00    9.026506e+03
  1.092718e+00    9.348831e+03
  1.145722e+00    9.846301e+03
  1.198726e+00    1.043028e+04
  1.251730e+00    1.112524e+04
  1.304734e+00    1.202130e+04
  1.357738e+00    1.288317e+04
  1.410742e+00    1.359468e+04
  1.463746e+00    1.393174e+04
  1.516750e+00    1.387688e+04
  1.569755e+00    1.340358e+04
  1.622759e+00    1.274218e+04
  1.675763e+00    1.187535e+04
  1.728767e+00    1.099940e+04
  1.781771e+00    1.019702e+04
  1.834775e+00    9.540729e+03
  1.887779e+00    8.974784e+03
  1.940783e+00    8.625504e+03
  1.993787e+00    8.324054e+03
  2.046791e+00    8.161694e+03
  2.099796e+00    8.104920e+03
  2.152800e+00    8.131640e+03
  2.205804e+00    8.213637e+03
  2.258808e+00    8.295925e+03
  2.311812e+00    8.338107e+03
  2.364816e+00    8.439979e+03
  2.417820e+00    8.789720e+03
  2.470824e+00    9.553746e+03
  2.523828e+00    1.117893e+04
  2.576832e+00    1.294058e+04
  2.629837e+00    1.080585e+04
  2.682841e+00    8.445867e+03
  2.735845e+00    7.788535e+03
  2.788849e+00    7.156504e+03
  2.841853e+00    6.902711e+03
  2.894857e+00    7.966384e+03
  2.947861e+00    1.140844e+04
  3.000865e+00    1.256317e+04
  3.053869e+00    9.235803e+03
  3.106874e+00    8.055560e+03
  3.159878e+00    8.642978e+03
  3.212882e+00    7.829002e+03
  3.265886e+00    6.007502e+03
  3.318890e+00    5.135950e+03
  3.371894e+00    4.905087e+03
  3.424898e+00    4.820466e+03
  3.477902e+00    4.788367e+03
  3.530906e+00    4.755920e+03
  3.583910e+00    4.726279e+03
  3.636915e+00    4.745380e+03
  3.689919e+00    4.788463e+03
  3.742923e+00    4.866512e+03
  3.795927e+00    4.985594e+03
  3.848931e+00    5.135315e+03
  3.901935e+00    5.325934e+03
  3.954939e+00    5.559736e+03
  4.007943e+00    5.923983e+03
  4.060947e+00    6.442298e+03
  4.113951e+00    7.291245e+03
  4.166956e+00    9.122044e+03
  4.219960e+00    1.094120e+04
  4.272964e+00    9.095054e+03
  4.325968e+00    7.161663e+03
  4.378972e+00    7.411912e+03
  4.431976e+00    9.500978e+03
  4.484980e+00    1.061452e+04
  4.537984e+00    8.480642e+03
  4.590988e+00    6.448900e+03
  4.643992e+00    5.713674e+03
  4.696997e+00    5.530973e+03
  4.750001e+00    5.496549e+03
  4.803005e+00    5.579639e+03
  4.856009e+00    5.880432e+03
  4.909013e+00    6.451522e+03
  4.962017e+00    6.604331e+03
  5.015021e+00    6.018302e+03
  5.068025e+00    5.723264e+03
  5.121029e+00    5.895356e+03
  5.174033e+00    5.927519e+03
  5.227038e+00    5.278408e+03
  5.280042e+00    4.703329e+03
  5.333046e+00    4.406649e+03
  5.386050e+00    4.253365e+03
  5.439054e+00    4.249381e+03
  5.492058e+00    4.205054e+03
  5.545062e+00    3.910233e+03
  5.598066e+00    3.678526e+03
  5.651070e+00    3.591035e+03
  5.704074e+00    3.564479e+03
  5.757079e+00    3.573007e+03
  5.810083e+00    3.620986e+03
  5.863087e+00    3.720137e+03
  5.916091e+00    3.916404e+03
  5.969095e+00    4.085068e+03
  6.022099e+00    4.031139e+03
  6.075103e+00    3.918742e+03
  6.128107e+00    3.846238e+03
  6.181111e+00    3.825338e+03
  6.234115e+00    3.899128e+03
  6.287120e+00    4.023640e+03
  6.340124e+00    4.068266e+03
  6.393128e+00    4.078396e+03
  6.446132e+00    4.089306e+03
  6.499136e+00    4.113772e+03
  6.552140e+00    4.032512e+03
  6.605144e+00    4.067304e+03
  6.658148e+00    4.153707e+03
  6.711152e+00    3.950764e+03
  6.764156e+00    3.667373e+03
  6.817161e+00    3.494049e+03
  6.870165e+00    3.382266e+03
  6.923169e+00    3.318192e+03
  6.976173e+00    3.343889e+03
  7.029177e+00    3.406462e+03
  7.082181e+00    3.449350e+03
  7.135185e+00    3.430414e+03
  7.188189e+00    3.434887e+03
  7.241193e+00    3.531960e+03
  7.294197e+00    3.656230e+03
  7.347202e+00    3.554471e+03
  7.400206e+00    3.386623e+03
  7.453210e+00    3.304808e+03
  7.506214e+00    3.287195e+03
  7.559218e+00    3.294314e+03
  7.612222e+00    3.343255e+03
  7.665226e+00    3.494286e+03
  7.718230e+00    3.719186e+03
  7.771234e+00    3.698445e+03
  7.824239e+00    3.431745e+03
  7.877243e+00    3.227948e+03
  7.930247e+00    3.121356e+03
  7.983251e+00    3.081207e+03
  8.036255e+00    3.070254e+03
  8.089259e+00    3.075297e+03
  8.142263e+00    3.085694e+03
  8.195267e+00    3.091804e+03
  8.248271e+00    3.090726e+03
  8.301275e+00    3.089074e+03
  8.354280e+00    3.092402e+03
  8.407284e+00    3.105047e+03
  8.460288e+00    3.091277e+03
  8.513292e+00    3.051581e+03
  8.566296e+00    3.039465e+03
  8.619300e+00    3.032886e+03
  8.672304e+00    3.040890e+03
  8.725308e+00    3.069672e+03
  8.778312e+00    3.090939e+03
  8.831316e+00    3.100238e+03
  8.884321e+00    3.098163e+03
  8.937325e+00    3.078714e+03
  8.990329e+00    2.998267e+03
  9.043333e+00    2.893558e+03
  9.096337e+00    2.821320e+03
  9.149341e+00    2.786529e+03
  9.202345e+00    2.768844e+03
  9.255349e+00    2.762079e+03
  9.308353e+00    2.759635e+03
  9.361357e+00    2.771330e+03
  9.414362e+00    2.770986e+03
  9.467366e+00    2.764361e+03
  9.520370e+00    2.728000e+03
  9.573374e+00    2.692938e+03
  9.626378e+00    2.679062e+03
  9.679382e+00    2.677756e+03
  9.732386e+00    2.681411e+03
  9.785390e+00    2.680537e+03
  9.838394e+00    2.674615e+03
  9.891398e+00    2.664886e+03
  9.944403e+00    2.645646e+03
  9.997407e+00    2.618960e+03
  1.005041e+01    2.594921e+03
  1.010341e+01    2.553973e+03
  1.015642e+01    2.534944e+03
  1.020942e+01    2.522960e+03
  1.026243e+01    2.514958e+03
  1.031543e+01    2.525272e+03
  1.036844e+01    2.544511e+03
  1.042144e+01    2.539778e+03
  1.047444e+01    2.544665e+03
  1.052745e+01    2.541925e+03
  1.058045e+01    2.542869e+03
  1.063346e+01    2.540882e+03
  1.068646e+01    2.534238e+03
  1.073946e+01    2.516074e+03
  1.079247e+01    2.503167e+03
  1.084547e+01    2.490261e+03
  1.089848e+01    2.487403e+03
  1.095148e+01    2.485776e+03
  1.100448e+01    2.482263e+03
  1.105749e+01    2.481379e+03
  1.111049e+01    2.483543e+03
  1.116350e+01    2.473711e+03
  1.121650e+01    2.457809e+03
  1.126951e+01    2.440008e+03
  1.132251e+01    2.430883e+03
  1.137551e+01    2.419957e+03
  1.142852e+01    2.412137e+03
  1.148152e+01    2.399412e+03
  1.153453e+01    2.389462e+03
  1.158753e+01    2.380178e+03
  1.164053e+01    2.378176e+03
  1.169354e+01    2.381638e+03
  1.174654e+01    2.409279e+03
  1.179955e+01    2.404591e+03
  1.185255e+01    2.400865e+03
  1.190555e+01    2.387455e+03
  1.195856e+01    2.375068e+03
  1.201156e+01    2.368338e+03
  1.206457e+01    2.359539e+03
  1.211757e+01    2.364107e+03
  1.217057e+01    2.366983e+03
  1.222358e+01    2.366333e+03
  1.227658e+01    2.362766e+03
  1.232959e+01    2.359707e+03
  1.238259e+01    2.350949e+03
  1.243560e+01    2.350296e+03
  1.248860e+01    2.346868e+03
  1.254160e+01    2.347915e+03
  1.259461e+01    2.345530e+03
  1.264761e+01    2.336669e+03
  1.270062e+01    2.326032e+03
  1.275362e+01    2.315733e+03
  1.280662e+01    2.308577e+03
  1.285963e+01    2.302263e+03
  1.291263e+01    2.290040e+03
  1.296564e+01    2.278902e+03
  1.301864e+01    2.272539e+03
  1.307164e+01    2.261924e+03
  1.312465e+01    2.251648e+03
  1.317765e+01    2.243358e+03
  1.323066e+01    2.225781e+03
  1.328366e+01    2.217623e+03
  1.333667e+01    2.213696e+03
  1.338967e+01    2.208007e+03
  1.344267e+01    2.220649e+03
  1.349568e+01    2.216532e+03
  1.354868e+01    2.209314e+03
  1.360169e+01    2.199349e+03
  1.365469e+01    2.185090e+03
  1.370769e+01    2.177819e+03
  1.376070e+01    2.165475e+03
  1.381370e+01    2.158219e+03
  1.386671e+01    2.151764e+03
  1.391971e+01    2.142804e+03
  1.397271e+01    2.140278e+03
  1.402572e+01    2.134961e+03
  1.407872e+01    2.127632e+03
  1.413173e+01    2.123160e+03
  1.418473e+01    2.119328e+03
  1.423773e+01    2.114021e+03
  1.429074e+01    2.105902e+03
  1.434374e+01    2.105410e+03
  1.439675e+01    2.098478e+03
  1.444975e+01    2.096161e+03
  1.450276e+01    2.092303e+03
  1.455576e+01    2.084976e+03
  1.460876e+01    2.084861e+03
  1.466177e+01    2.081762e+03
  1.471477e+01    2.081714e+03
  1.476778e+01    2.084505e+03
  1.482078e+01    2.081780e+03
  1.487378e+01    2.075630e+03
  1.492679e+01    2.070937e+03
  1.497979e+01    2.065908e+03
  1.503280e+01    2.065097e+03
  1.508580e+01    2.063501e+03
  1.513880e+01    2.061118e+03
  1.519181e+01    2.066493e+03
  1.524481e+01    2.087906e+03
  1.529782e+01    2.071459e+03
  1.535082e+01    2.059875e+03
  1.540382e+01    2.053747e+03
  1.545683e+01    2.046270e+03
  1.550983e+01    2.049173e+03
  1.556284e+01    2.046404e+03
  1.561584e+01    2.038226e+03
  1.566885e+01    2.035638e+03
  1.572185e+01    2.032553e+03
  1.577485e+01    2.029493e+03
  1.582786e+01    2.024547e+03
  1.588086e+01    2.021503e+03
  1.593387e+01    2.020483e+03
  1.598687e+01    2.015416e+03
  1.603987e+01    2.007687e+03
  1.609288e+01    1.999303e+03
  1.614588e+01    1.994546e+03
  1.619889e+01    1.995658e+03
  1.625189e+01    1.998992e+03
  1.630489e+01    1.996780e+03
  1.635790e+01    1.992298e+03
  1.641090e+01    1.987763e+03
  1.646391e+01    1.983342e+03
  1.651691e+01    1.980119e+03
  1.656992e+01    1.973885e+03
  1.662292e+01    1.970231e+03
  1.667592e+01    1.969732e+03
  1.672893e+01    1.964875e+03
  1.678193e+01    1.967726e+03
  1.683494e+01    1.963198e+03
  1.688794e+01    1.962275e+03
  1.694094e+01    1.960290e+03
  1.699395e+01    1.956466e+03
  1.704695e+01    1.951685e+03
  1.709996e+01    1.948108e+03
  1.715296e+01    1.944312e+03
  1.720596e+01    1.941480e+03
  1.725897e+01    1.935393e+03
  1.731197e+01    1.934577e+03
  1.736498e+01    1.929360e+03
  1.741798e+01    1.926504e+03
  1.747098e+01    1.925629e+03
  1.752399e+01    1.925296e+03
  1.757699e+01    1.916616e+03
  1.763000e+01    1.913380e+03
  1.768300e+01    1.908371e+03
  1.773601e+01    1.904959e+03
  1.778901e+01    1.899117e+03
  1.784201e+01    1.893435e+03
  1.789502e+01    1.892070e+03
  1.794802e+01    1.886201e+03
  1.800103e+01    1.885921e+03
  1.805403e+01    1.879884e+03
  1.810703e+01    1.875313e+03
  1.816004e+01    1.869940e+03
  1.821304e+01    1.868579e+03
  1.826605e+01    1.872160e+03
  1.831905e+01    1.863199e+03
  1.837205e+01    1.859518e+03
  1.842506e+01    1.856286e+03
  1.847806e+01    1.854010e+03
  1.853107e+01    1.853395e+03
  1.858407e+01    1.851374e+03
  1.863708e+01    1.851120e+03
  1.869008e+01    1.865565e+03
  1.874308e+01    1.854518e+03
  1.879609e+01    1.849992e+03
  1.884909e+01    1.845958e+03
  1.890210e+01    1.842385e+03
  1.895510e+01    1.834897e+03
  1.900810e+01    1.832594e+03
  1.906111e+01    1.825791e+03
  1.911411e+01    1.817027e+03
  1.916712e+01    1.815051e+03
  1.922012e+01    1.812074e+03
  1.927312e+01    1.805331e+03
  1.932613e+01    1.801107e+03
  1.937913e+01    1.795731e+03
  1.943214e+01    1.791576e+03
  1.948514e+01    1.787769e+03
  1.953814e+01    1.782334e+03
  1.959115e+01    1.777969e+03
  1.964415e+01    1.771621e+03
  1.969716e+01    1.767783e+03
  1.975016e+01    1.763566e+03
  1.980317e+01    1.760422e+03
  1.985617e+01    1.754452e+03
  1.990917e+01    1.748727e+03
  1.996218e+01    1.742620e+03
  2.001518e+01    1.739128e+03
  2.006819e+01    1.731352e+03
  2.012119e+01    1.725651e+03
  2.017419e+01    1.721277e+03
  2.022720e+01    1.715883e+03
  2.028020e+01    1.708147e+03
  2.033321e+01    1.701131e+03
  2.038621e+01    1.697030e+03
  2.043921e+01    1.693294e+03
  2.049222e+01    1.689281e+03
  2.054522e+01    1.683059e+03
  2.059823e+01    1.677755e+03
  2.065123e+01    1.674139e+03
  2.070424e+01    1.669011e+03
  2.075724e+01    1.669042e+03
  2.081024e+01    1.675409e+03
  2.086325e+01    1.663989e+03
  2.091625e+01    1.648904e+03
  2.096926e+01    1.633854e+03
  2.102226e+01    1.623701e+03
  2.107526e+01    1.613849e+03
  2.112827e+01    1.603644e+03
  2.118127e+01    1.596107e+03
  2.123428e+01    1.585558e+03
  2.128728e+01    1.577825e+03
  2.134028e+01    1.566073e+03
  2.139329e+01    1.557188e+03
  2.144629e+01    1.548993e+03
  2.149930e+01    1.538762e+03
  2.155230e+01    1.530372e+03
  2.160530e+01    1.523034e+03
  2.165831e+01    1.513658e+03
  2.171131e+01    1.505988e+03
  2.176432e+01    1.500962e+03
  2.181732e+01    1.491291e+03
  2.187033e+01    1.482674e+03
  2.192333e+01    1.475685e+03
  2.197633e+01    1.466268e+03
  2.202934e+01    1.458189e+03
  2.208234e+01    1.447994e+03
  2.213535e+01    1.440739e+03
  2.218835e+01    1.429412e+03
  2.224135e+01    1.423492e+03
  2.229436e+01    1.415693e+03
  2.234736e+01    1.406672e+03
  2.240037e+01    1.398613e+03
  2.245337e+01    1.389052e+03
  2.250637e+01    1.383305e+03
  2.255938e+01    1.374645e+03
  2.261238e+01    1.378046e+03
  2.266539e+01    1.377806e+03
  2.271839e+01    1.380765e+03
  2.277140e+01    1.378384e+03
  2.282440e+01    1.377357e+03
  2.287740e+01    1.375505e+03
  2.293041e+01    1.375773e+03
  2.298341e+01    1.374853e+03
  2.303642e+01    1.373652e+03
  2.308942e+01    1.372768e+03
  2.314242e+01    1.369198e+03
  2.319543e+01    1.366373e+03
  2.324843e+01    1.361234e+03
  2.330144e+01    1.359249e+03
  2.335444e+01    1.356480e+03
  2.340744e+01    1.355920e+03
  2.346045e+01    1.353466e+03
  2.351345e+01    1.352297e+03
  2.356646e+01    1.346488e+03
  2.361946e+01    1.346939e+03
  2.367246e+01    1.346278e+03
  2.372547e+01    1.342347e+03
  2.377847e+01    1.336636e+03
  2.383148e+01    1.331604e+03
  2.388448e+01    1.327932e+03
  2.393749e+01    1.323899e+03
  2.399049e+01    1.320640e+03
  2.404349e+01    1.320955e+03
  2.409650e+01    1.315257e+03
  2.414950e+01    1.308860e+03
  2.420251e+01    1.303407e+03
  2.425551e+01    1.298336e+03
  2.430851e+01    1.292522e+03
  2.436152e+01    1.286601e+03
  2.441452e+01    1.280647e+03
  2.446753e+01    1.272737e+03
  2.452053e+01    1.266687e+03
  2.457353e+01    1.262609e+03
  2.462654e+01    1.258857e+03
  2.467954e+01    1.249616e+03
  2.473255e+01    1.241080e+03
  2.478555e+01    1.232023e+03
  2.483855e+01    1.221530e+03
  2.489156e+01    1.213292e+03
  2.494456e+01    1.203212e+03
  2.499757e+01    1.194819e+03
  2.505057e+01    1.185546e+03
  2.510358e+01    1.177933e+03
  2.515658e+01    1.175188e+03
  2.520958e+01    1.169802e+03
  2.526259e+01    1.164254e+03
  2.531559e+01    1.158872e+03
  2.536860e+01    1.152738e+03
  2.542160e+01    1.145600e+03
  2.547460e+01    1.138750e+03
  2.552761e+01    1.131739e+03
  2.558061e+01    1.129124e+03
  2.563362e+01    1.128154e+03
  2.568662e+01    1.116700e+03
  2.573962e+01    1.109484e+03
  2.579263e+01    1.099980e+03
  2.584563e+01    1.093149e+03
  2.589864e+01    1.089853e+03
  2.595164e+01    1.086263e+03
  2.600465e+01    1.085069e+03
  2.605765e+01    1.080298e+03
  2.611065e+01    1.077316e+03
  2.616366e+01    1.073840e+03
  2.621666e+01    1.067448e+03
  2.626967e+01    1.054273e+03
  2.632267e+01    1.049854e+03
  2.637567e+01    1.049894e+03
  2.642868e+01    1.022997e+03
  2.648168e+01    1.022835e+03
