# == pyFAI calibration ==
# Distance Sample to Detector: 0.2945755399789714 m
# PONI: 2.880e-01, 2.450e-01 m
# Rotations: -0.007291 -0.010887 -0.000000 rad
# 
# == Fit2d calibration ==
# Distance Sample-beamCenter: 294.601 mm
# Center: x=1437.174, y=1655.617 pix
# Tilt: 0.751 deg  TiltPlanRot: -56.193 deg
# 
# Detector Pilatus CdTe 2M	 PixelSize= 1.720e-04, 1.720e-04 m
#    Detector has a mask: True 
#    Detector has a dark current: False 
#    detector has a flat field: False 
# 
# Wavelength: 2.0732883349524408e-11 m
# Mask applied: from detector
# Dark current applied: False
# Flat field applied: False
# Polarization factor: 0.9
# Normalization factor: 1.0
# --> /gpfs/current/raw/FMue_2/FMue_2_20231024_120911_00265.dat
#        q_A^-1             I 
  3.263564e-02             nan
  8.563974e-02             nan
  1.386438e-01             nan
  1.916479e-01             nan
  2.446520e-01    3.862712e+04
  2.976561e-01    2.973468e+04
  3.506602e-01    1.588673e+04
  4.036643e-01    1.112171e+04
  4.566684e-01    9.463316e+03
  5.096725e-01    9.016390e+03
  5.626766e-01    8.704384e+03
  6.156807e-01    8.329333e+03
  6.686848e-01    8.165647e+03
  7.216890e-01    8.210264e+03
  7.746931e-01    8.197259e+03
  8.276972e-01    8.281793e+03
  8.807013e-01    8.342158e+03
  9.337054e-01    8.481584e+03
  9.867095e-01    8.648007e+03
  1.039714e+00    8.888471e+03
  1.092718e+00    9.213781e+03
  1.145722e+00    9.696847e+03
  1.198726e+00    1.027505e+04
  1.251730e+00    1.097588e+04
  1.304734e+00    1.188530e+04
  1.357738e+00    1.272751e+04
  1.410742e+00    1.342152e+04
  1.463746e+00    1.375617e+04
  1.516750e+00    1.370447e+04
  1.569755e+00    1.322288e+04
  1.622759e+00    1.256686e+04
  1.675763e+00    1.171283e+04
  1.728767e+00    1.082838e+04
  1.781771e+00    1.002254e+04
  1.834775e+00    9.364967e+03
  1.887779e+00    8.802331e+03
  1.940783e+00    8.442111e+03
  1.993787e+00    8.127013e+03
  2.046791e+00    7.943502e+03
  2.099796e+00    7.875222e+03
  2.152800e+00    7.885029e+03
  2.205804e+00    7.943056e+03
  2.258808e+00    7.981866e+03
  2.311812e+00    7.976843e+03
  2.364816e+00    8.033532e+03
  2.417820e+00    8.337369e+03
  2.470824e+00    8.997805e+03
  2.523828e+00    1.016392e+04
  2.576832e+00    1.120068e+04
  2.629837e+00    9.837776e+03
  2.682841e+00    8.150026e+03
  2.735845e+00    7.568144e+03
  2.788849e+00    6.961496e+03
  2.841853e+00    6.690779e+03
  2.894857e+00    7.438647e+03
  2.947861e+00    9.796463e+03
  3.000865e+00    1.194849e+04
  3.053869e+00    1.149417e+04
  3.106874e+00    9.942774e+03
  3.159878e+00    9.353807e+03
  3.212882e+00    8.163253e+03
  3.265886e+00    6.251047e+03
  3.318890e+00    5.398846e+03
  3.371894e+00    5.244072e+03
  3.424898e+00    5.376684e+03
  3.477902e+00    5.705238e+03
  3.530906e+00    5.661763e+03
  3.583910e+00    5.197462e+03
  3.636915e+00    4.898617e+03
  3.689919e+00    4.825356e+03
  3.742923e+00    4.846581e+03
  3.795927e+00    4.933641e+03
  3.848931e+00    5.055178e+03
  3.901935e+00    5.226161e+03
  3.954939e+00    5.452613e+03
  4.007943e+00    5.780898e+03
  4.060947e+00    6.215771e+03
  4.113951e+00    6.806496e+03
  4.166956e+00    7.887893e+03
  4.219960e+00    8.986954e+03
  4.272964e+00    8.077588e+03
  4.325968e+00    6.960748e+03
  4.378972e+00    7.355666e+03
  4.431976e+00    9.418768e+03
  4.484980e+00    1.045711e+04
  4.537984e+00    8.298632e+03
  4.590988e+00    6.288978e+03
  4.643992e+00    5.566263e+03
  4.696997e+00    5.383287e+03
  4.750001e+00    5.349083e+03
  4.803005e+00    5.417447e+03
  4.856009e+00    5.668955e+03
  4.909013e+00    6.193483e+03
  4.962017e+00    6.612222e+03
  5.015021e+00    6.269897e+03
  5.068025e+00    5.779729e+03
  5.121029e+00    5.660727e+03
  5.174033e+00    5.555417e+03
  5.227038e+00    5.104551e+03
  5.280042e+00    4.663449e+03
  5.333046e+00    4.396379e+03
  5.386050e+00    4.250551e+03
  5.439054e+00    4.249196e+03
  5.492058e+00    4.208732e+03
  5.545062e+00    3.926836e+03
  5.598066e+00    3.713494e+03
  5.651070e+00    3.651992e+03
  5.704074e+00    3.691439e+03
  5.757079e+00    3.872084e+03
  5.810083e+00    4.185336e+03
  5.863087e+00    4.245868e+03
  5.916091e+00    4.107407e+03
  5.969095e+00    4.076152e+03
  6.022099e+00    4.060942e+03
  6.075103e+00    4.057186e+03
  6.128107e+00    3.957930e+03
  6.181111e+00    3.824851e+03
  6.234115e+00    3.835417e+03
  6.287120e+00    3.928498e+03
  6.340124e+00    3.940096e+03
  6.393128e+00    3.901103e+03
  6.446132e+00    3.848410e+03
  6.499136e+00    3.828277e+03
  6.552140e+00    3.775773e+03
  6.605144e+00    3.780836e+03
  6.658148e+00    3.811338e+03
  6.711152e+00    3.692898e+03
  6.764156e+00    3.526871e+03
  6.817161e+00    3.409328e+03
  6.870165e+00    3.312639e+03
  6.923169e+00    3.254912e+03
  6.976173e+00    3.293150e+03
  7.029177e+00    3.359216e+03
  7.082181e+00    3.392201e+03
  7.135185e+00    3.347263e+03
  7.188189e+00    3.312370e+03
  7.241193e+00    3.345886e+03
  7.294197e+00    3.412270e+03
  7.347202e+00    3.373835e+03
  7.400206e+00    3.298141e+03
  7.453210e+00    3.261245e+03
  7.506214e+00    3.269022e+03
  7.559218e+00    3.305581e+03
  7.612222e+00    3.399998e+03
  7.665226e+00    3.583254e+03
  7.718230e+00    3.776773e+03
  7.771234e+00    3.734632e+03
  7.824239e+00    3.521845e+03
  7.877243e+00    3.342067e+03
  7.930247e+00    3.194200e+03
  7.983251e+00    3.105020e+03
  8.036255e+00    3.070078e+03
  8.089259e+00    3.060679e+03
  8.142263e+00    3.065741e+03
  8.195267e+00    3.061406e+03
  8.248271e+00    3.055040e+03
  8.301275e+00    3.041199e+03
  8.354280e+00    3.032426e+03
  8.407284e+00    3.033638e+03
  8.460288e+00    3.028650e+03
  8.513292e+00    3.013828e+03
  8.566296e+00    3.026193e+03
  8.619300e+00    3.035414e+03
  8.672304e+00    3.021414e+03
  8.725308e+00    3.011050e+03
  8.778312e+00    3.001747e+03
  8.831316e+00    2.998605e+03
  8.884321e+00    3.001291e+03
  8.937325e+00    2.987073e+03
  8.990329e+00    2.931083e+03
  9.043333e+00    2.861557e+03
  9.096337e+00    2.823039e+03
  9.149341e+00    2.799958e+03
  9.202345e+00    2.761734e+03
  9.255349e+00    2.729198e+03
  9.308353e+00    2.709594e+03
  9.361357e+00    2.704883e+03
  9.414362e+00    2.695871e+03
  9.467366e+00    2.692256e+03
  9.520370e+00    2.666467e+03
  9.573374e+00    2.639045e+03
  9.626378e+00    2.622450e+03
  9.679382e+00    2.619905e+03
  9.732386e+00    2.620357e+03
  9.785390e+00    2.618004e+03
  9.838394e+00    2.615814e+03
  9.891398e+00    2.615136e+03
  9.944403e+00    2.608741e+03
  9.997407e+00    2.590006e+03
  1.005041e+01    2.564254e+03
  1.010341e+01    2.524606e+03
  1.015642e+01    2.501000e+03
  1.020942e+01    2.494698e+03
  1.026243e+01    2.489071e+03
  1.031543e+01    2.504661e+03
  1.036844e+01    2.543309e+03
  1.042144e+01    2.551578e+03
  1.047444e+01    2.550615e+03
  1.052745e+01    2.537402e+03
  1.058045e+01    2.529161e+03
  1.063346e+01    2.510494e+03
  1.068646e+01    2.495776e+03
  1.073946e+01    2.475784e+03
  1.079247e+01    2.462371e+03
  1.084547e+01    2.450926e+03
  1.089848e+01    2.448072e+03
  1.095148e+01    2.449482e+03
  1.100448e+01    2.442943e+03
  1.105749e+01    2.438973e+03
  1.111049e+01    2.437739e+03
  1.116350e+01    2.427475e+03
  1.121650e+01    2.414850e+03
  1.126951e+01    2.400629e+03
  1.132251e+01    2.390226e+03
  1.137551e+01    2.382032e+03
  1.142852e+01    2.377880e+03
  1.148152e+01    2.373790e+03
  1.153453e+01    2.366080e+03
  1.158753e+01    2.362820e+03
  1.164053e+01    2.355328e+03
  1.169354e+01    2.358603e+03
  1.174654e+01    2.383094e+03
  1.179955e+01    2.372639e+03
  1.185255e+01    2.365211e+03
  1.190555e+01    2.349694e+03
  1.195856e+01    2.338779e+03
  1.201156e+01    2.327511e+03
  1.206457e+01    2.322897e+03
  1.211757e+01    2.324640e+03
  1.217057e+01    2.327780e+03
  1.222358e+01    2.322758e+03
  1.227658e+01    2.323170e+03
  1.232959e+01    2.321451e+03
  1.238259e+01    2.313557e+03
  1.243560e+01    2.315224e+03
  1.248860e+01    2.313515e+03
  1.254160e+01    2.317763e+03
  1.259461e+01    2.313974e+03
  1.264761e+01    2.306606e+03
  1.270062e+01    2.293925e+03
  1.275362e+01    2.282966e+03
  1.280662e+01    2.274054e+03
  1.285963e+01    2.267082e+03
  1.291263e+01    2.255286e+03
  1.296564e+01    2.246349e+03
  1.301864e+01    2.238948e+03
  1.307164e+01    2.234131e+03
  1.312465e+01    2.223895e+03
  1.317765e+01    2.220363e+03
  1.323066e+01    2.198555e+03
  1.328366e+01    2.189321e+03
  1.333667e+01    2.182992e+03
  1.338967e+01    2.180115e+03
  1.344267e+01    2.190734e+03
  1.349568e+01    2.188472e+03
  1.354868e+01    2.180931e+03
  1.360169e+01    2.168947e+03
  1.365469e+01    2.157746e+03
  1.370769e+01    2.147129e+03
  1.376070e+01    2.135047e+03
  1.381370e+01    2.127493e+03
  1.386671e+01    2.119203e+03
  1.391971e+01    2.112297e+03
  1.397271e+01    2.110251e+03
  1.402572e+01    2.105685e+03
  1.407872e+01    2.097768e+03
  1.413173e+01    2.092676e+03
  1.418473e+01    2.088488e+03
  1.423773e+01    2.083580e+03
  1.429074e+01    2.076259e+03
  1.434374e+01    2.076516e+03
  1.439675e+01    2.069320e+03
  1.444975e+01    2.066613e+03
  1.450276e+01    2.061350e+03
  1.455576e+01    2.057571e+03
  1.460876e+01    2.053944e+03
  1.466177e+01    2.049652e+03
  1.471477e+01    2.048959e+03
  1.476778e+01    2.051478e+03
  1.482078e+01    2.049887e+03
  1.487378e+01    2.044886e+03
  1.492679e+01    2.039770e+03
  1.497979e+01    2.035691e+03
  1.503280e+01    2.034678e+03
  1.508580e+01    2.033127e+03
  1.513880e+01    2.030605e+03
  1.519181e+01    2.036288e+03
  1.524481e+01    2.058839e+03
  1.529782e+01    2.040777e+03
  1.535082e+01    2.028476e+03
  1.540382e+01    2.024554e+03
  1.545683e+01    2.014965e+03
  1.550983e+01    2.018912e+03
  1.556284e+01    2.015345e+03
  1.561584e+01    2.008778e+03
  1.566885e+01    2.005326e+03
  1.572185e+01    2.003303e+03
  1.577485e+01    2.001325e+03
  1.582786e+01    1.995946e+03
  1.588086e+01    1.992958e+03
  1.593387e+01    1.991063e+03
  1.598687e+01    1.987905e+03
  1.603987e+01    1.978864e+03
  1.609288e+01    1.970875e+03
  1.614588e+01    1.967388e+03
  1.619889e+01    1.966934e+03
  1.625189e+01    1.970873e+03
  1.630489e+01    1.967739e+03
  1.635790e+01    1.962791e+03
  1.641090e+01    1.960914e+03
  1.646391e+01    1.954397e+03
  1.651691e+01    1.952332e+03
  1.656992e+01    1.946091e+03
  1.662292e+01    1.941306e+03
  1.667592e+01    1.940971e+03
  1.672893e+01    1.938637e+03
  1.678193e+01    1.938594e+03
  1.683494e+01    1.932574e+03
  1.688794e+01    1.933085e+03
  1.694094e+01    1.929722e+03
  1.699395e+01    1.924547e+03
  1.704695e+01    1.920997e+03
  1.709996e+01    1.917527e+03
  1.715296e+01    1.914219e+03
  1.720596e+01    1.911417e+03
  1.725897e+01    1.907121e+03
  1.731197e+01    1.903267e+03
  1.736498e+01    1.898685e+03
  1.741798e+01    1.897342e+03
  1.747098e+01    1.895704e+03
  1.752399e+01    1.894422e+03
  1.757699e+01    1.888099e+03
  1.763000e+01    1.883969e+03
  1.768300e+01    1.878787e+03
  1.773601e+01    1.877099e+03
  1.778901e+01    1.872400e+03
  1.784201e+01    1.865851e+03
  1.789502e+01    1.864495e+03
  1.794802e+01    1.857580e+03
  1.800103e+01    1.856744e+03
  1.805403e+01    1.851755e+03
  1.810703e+01    1.845978e+03
  1.816004e+01    1.841731e+03
  1.821304e+01    1.840304e+03
  1.826605e+01    1.843763e+03
  1.831905e+01    1.833960e+03
  1.837205e+01    1.830946e+03
  1.842506e+01    1.828519e+03
  1.847806e+01    1.826766e+03
  1.853107e+01    1.823884e+03
  1.858407e+01    1.822491e+03
  1.863708e+01    1.824346e+03
  1.869008e+01    1.837370e+03
  1.874308e+01    1.827287e+03
  1.879609e+01    1.821652e+03
  1.884909e+01    1.815750e+03
  1.890210e+01    1.813006e+03
  1.895510e+01    1.805537e+03
  1.900810e+01    1.802894e+03
  1.906111e+01    1.797274e+03
  1.911411e+01    1.789648e+03
  1.916712e+01    1.787763e+03
  1.922012e+01    1.783231e+03
  1.927312e+01    1.776042e+03
  1.932613e+01    1.771721e+03
  1.937913e+01    1.766711e+03
  1.943214e+01    1.762539e+03
  1.948514e+01    1.757285e+03
  1.953814e+01    1.753720e+03
  1.959115e+01    1.749287e+03
  1.964415e+01    1.744590e+03
  1.969716e+01    1.739527e+03
  1.975016e+01    1.735305e+03
  1.980317e+01    1.731059e+03
  1.985617e+01    1.726391e+03
  1.990917e+01    1.720231e+03
  1.996218e+01    1.715917e+03
  2.001518e+01    1.711430e+03
  2.006819e+01    1.704236e+03
  2.012119e+01    1.697669e+03
  2.017419e+01    1.694789e+03
  2.022720e+01    1.687858e+03
  2.028020e+01    1.680235e+03
  2.033321e+01    1.675241e+03
  2.038621e+01    1.669303e+03
  2.043921e+01    1.664508e+03
  2.049222e+01    1.660454e+03
  2.054522e+01    1.655097e+03
  2.059823e+01    1.651263e+03
  2.065123e+01    1.645194e+03
  2.070424e+01    1.642432e+03
  2.075724e+01    1.641359e+03
  2.081024e+01    1.648168e+03
  2.086325e+01    1.638007e+03
  2.091625e+01    1.620693e+03
  2.096926e+01    1.607880e+03
  2.102226e+01    1.597701e+03
  2.107526e+01    1.588024e+03
  2.112827e+01    1.577816e+03
  2.118127e+01    1.569295e+03
  2.123428e+01    1.559968e+03
  2.128728e+01    1.551873e+03
  2.134028e+01    1.541909e+03
  2.139329e+01    1.531807e+03
  2.144629e+01    1.525395e+03
  2.149930e+01    1.514479e+03
  2.155230e+01    1.506119e+03
  2.160530e+01    1.497930e+03
  2.165831e+01    1.488370e+03
  2.171131e+01    1.482559e+03
  2.176432e+01    1.478925e+03
  2.181732e+01    1.466320e+03
  2.187033e+01    1.458266e+03
  2.192333e+01    1.451964e+03
  2.197633e+01    1.442700e+03
  2.202934e+01    1.434812e+03
  2.208234e+01    1.423882e+03
  2.213535e+01    1.415562e+03
  2.218835e+01    1.406998e+03
  2.224135e+01    1.398834e+03
  2.229436e+01    1.391474e+03
  2.234736e+01    1.384624e+03
  2.240037e+01    1.374815e+03
  2.245337e+01    1.367035e+03
  2.250637e+01    1.359446e+03
  2.255938e+01    1.351976e+03
  2.261238e+01    1.355659e+03
  2.266539e+01    1.355953e+03
  2.271839e+01    1.357951e+03
  2.277140e+01    1.355370e+03
  2.282440e+01    1.355741e+03
  2.287740e+01    1.352830e+03
  2.293041e+01    1.353226e+03
  2.298341e+01    1.351734e+03
  2.303642e+01    1.351344e+03
  2.308942e+01    1.347552e+03
  2.314242e+01    1.346797e+03
  2.319543e+01    1.344020e+03
  2.324843e+01    1.339191e+03
  2.330144e+01    1.335749e+03
  2.335444e+01    1.334244e+03
  2.340744e+01    1.333501e+03
  2.346045e+01    1.333626e+03
  2.351345e+01    1.328862e+03
  2.356646e+01    1.323773e+03
  2.361946e+01    1.324868e+03
  2.367246e+01    1.324331e+03
  2.372547e+01    1.318834e+03
  2.377847e+01    1.314718e+03
  2.383148e+01    1.309988e+03
  2.388448e+01    1.307100e+03
  2.393749e+01    1.301820e+03
  2.399049e+01    1.300116e+03
  2.404349e+01    1.297539e+03
  2.409650e+01    1.290844e+03
  2.414950e+01    1.284780e+03
  2.420251e+01    1.280479e+03
  2.425551e+01    1.275465e+03
  2.430851e+01    1.269582e+03
  2.436152e+01    1.262320e+03
  2.441452e+01    1.256990e+03
  2.446753e+01    1.252105e+03
  2.452053e+01    1.246682e+03
  2.457353e+01    1.240407e+03
  2.462654e+01    1.236991e+03
  2.467954e+01    1.227946e+03
  2.473255e+01    1.218679e+03
  2.478555e+01    1.209951e+03
  2.483855e+01    1.200212e+03
  2.489156e+01    1.191566e+03
  2.494456e+01    1.181406e+03
  2.499757e+01    1.175844e+03
  2.505057e+01    1.164110e+03
  2.510358e+01    1.157992e+03
  2.515658e+01    1.155281e+03
  2.520958e+01    1.150565e+03
  2.526259e+01    1.140787e+03
  2.531559e+01    1.139198e+03
  2.536860e+01    1.133958e+03
  2.542160e+01    1.129418e+03
  2.547460e+01    1.116844e+03
  2.552761e+01    1.111294e+03
  2.558061e+01    1.112899e+03
  2.563362e+01    1.110091e+03
  2.568662e+01    1.095932e+03
  2.573962e+01    1.089027e+03
  2.579263e+01    1.082514e+03
  2.584563e+01    1.073269e+03
  2.589864e+01    1.071846e+03
  2.595164e+01    1.068588e+03
  2.600465e+01    1.066874e+03
  2.605765e+01    1.068469e+03
  2.611065e+01    1.057127e+03
  2.616366e+01    1.061637e+03
  2.621666e+01    1.055336e+03
  2.626967e+01    1.045513e+03
  2.632267e+01    1.035719e+03
  2.637567e+01    1.030902e+03
  2.642868e+01    1.014458e+03
  2.648168e+01    1.010567e+03
