# == pyFAI calibration ==
# Distance Sample to Detector: 0.2945755399789714 m
# PONI: 2.880e-01, 2.450e-01 m
# Rotations: -0.007291 -0.010887 -0.000000 rad
# 
# == Fit2d calibration ==
# Distance Sample-beamCenter: 294.601 mm
# Center: x=1437.174, y=1655.617 pix
# Tilt: 0.751 deg  TiltPlanRot: -56.193 deg
# 
# Detector Pilatus CdTe 2M	 PixelSize= 1.720e-04, 1.720e-04 m
#    Detector has a mask: True 
#    Detector has a dark current: False 
#    detector has a flat field: False 
# 
# Wavelength: 2.0732883349524408e-11 m
# Mask applied: from detector
# Dark current applied: False
# Flat field applied: False
# Polarization factor: 0.9
# Normalization factor: 1.0
# --> /gpfs/current/raw/FMue_2/FMue_2_20231024_120911_00345.dat
#        q_A^-1             I 
  3.263564e-02             nan
  8.563974e-02             nan
  1.386438e-01             nan
  1.916479e-01             nan
  2.446520e-01    3.804091e+04
  2.976561e-01    2.948258e+04
  3.506602e-01    1.578121e+04
  4.036643e-01    1.105156e+04
  4.566684e-01    9.413315e+03
  5.096725e-01    8.957469e+03
  5.626766e-01    8.650186e+03
  6.156807e-01    8.290748e+03
  6.686848e-01    8.140810e+03
  7.216890e-01    8.178148e+03
  7.746931e-01    8.177938e+03
  8.276972e-01    8.252960e+03
  8.807013e-01    8.323870e+03
  9.337054e-01    8.470522e+03
  9.867095e-01    8.629526e+03
  1.039714e+00    8.869456e+03
  1.092718e+00    9.196533e+03
  1.145722e+00    9.679486e+03
  1.198726e+00    1.025540e+04
  1.251730e+00    1.095790e+04
  1.304734e+00    1.185101e+04
  1.357738e+00    1.271099e+04
  1.410742e+00    1.339971e+04
  1.463746e+00    1.373018e+04
  1.516750e+00    1.367658e+04
  1.569755e+00    1.319017e+04
  1.622759e+00    1.253681e+04
  1.675763e+00    1.168076e+04
  1.728767e+00    1.078750e+04
  1.781771e+00    9.981154e+03
  1.834775e+00    9.326144e+03
  1.887779e+00    8.740881e+03
  1.940783e+00    8.376501e+03
  1.993787e+00    8.057269e+03
  2.046791e+00    7.858417e+03
  2.099796e+00    7.792133e+03
  2.152800e+00    7.794842e+03
  2.205804e+00    7.827132e+03
  2.258808e+00    7.821371e+03
  2.311812e+00    7.773749e+03
  2.364816e+00    7.785298e+03
  2.417820e+00    8.035601e+03
  2.470824e+00    8.614108e+03
  2.523828e+00    9.562047e+03
  2.576832e+00    1.026229e+04
  2.629837e+00    9.308413e+03
  2.682841e+00    7.986721e+03
  2.735845e+00    7.452573e+03
  2.788849e+00    6.840362e+03
  2.841853e+00    6.537614e+03
  2.894857e+00    7.082347e+03
  2.947861e+00    8.843657e+03
  3.000865e+00    1.173833e+04
  3.053869e+00    1.324261e+04
  3.106874e+00    1.135382e+04
  3.159878e+00    9.898646e+03
  3.212882e+00    8.459512e+03
  3.265886e+00    6.474681e+03
  3.318890e+00    5.608660e+03
  3.371894e+00    5.489662e+03
  3.424898e+00    5.755899e+03
  3.477902e+00    6.357552e+03
  3.530906e+00    6.362928e+03
  3.583910e+00    5.574986e+03
  3.636915e+00    5.034137e+03
  3.689919e+00    4.877347e+03
  3.742923e+00    4.873579e+03
  3.795927e+00    4.935750e+03
  3.848931e+00    5.036727e+03
  3.901935e+00    5.197104e+03
  3.954939e+00    5.414640e+03
  4.007943e+00    5.723063e+03
  4.060947e+00    6.098562e+03
  4.113951e+00    6.519052e+03
  4.166956e+00    7.140466e+03
  4.219960e+00    7.818065e+03
  4.272964e+00    7.450308e+03
  4.325968e+00    6.864387e+03
  4.378972e+00    7.371487e+03
  4.431976e+00    9.441301e+03
  4.484980e+00    1.046358e+04
  4.537984e+00    8.267682e+03
  4.590988e+00    6.234806e+03
  4.643992e+00    5.503188e+03
  4.696997e+00    5.313242e+03
  4.750001e+00    5.264861e+03
  4.803005e+00    5.321711e+03
  4.856009e+00    5.536689e+03
  4.909013e+00    6.055207e+03
  4.962017e+00    6.713453e+03
  5.015021e+00    6.532081e+03
  5.068025e+00    5.857894e+03
  5.121029e+00    5.552957e+03
  5.174033e+00    5.373802e+03
  5.227038e+00    5.026992e+03
  5.280042e+00    4.670392e+03
  5.333046e+00    4.418659e+03
  5.386050e+00    4.280513e+03
  5.439054e+00    4.281812e+03
  5.492058e+00    4.242016e+03
  5.545062e+00    3.962549e+03
  5.598066e+00    3.757533e+03
  5.651070e+00    3.710793e+03
  5.704074e+00    3.786870e+03
  5.757079e+00    4.078293e+03
  5.810083e+00    4.616842e+03
  5.863087e+00    4.689509e+03
  5.916091e+00    4.282529e+03
  5.969095e+00    4.109952e+03
  6.022099e+00    4.116176e+03
  6.075103e+00    4.185651e+03
  6.128107e+00    4.077878e+03
  6.181111e+00    3.859343e+03
  6.234115e+00    3.822673e+03
  6.287120e+00    3.887927e+03
  6.340124e+00    3.876051e+03
  6.393128e+00    3.807456e+03
  6.446132e+00    3.714858e+03
  6.499136e+00    3.668205e+03
  6.552140e+00    3.627322e+03
  6.605144e+00    3.622961e+03
  6.658148e+00    3.635122e+03
  6.711152e+00    3.561949e+03
  6.764156e+00    3.465400e+03
  6.817161e+00    3.372730e+03
  6.870165e+00    3.288442e+03
  6.923169e+00    3.239879e+03
  6.976173e+00    3.282149e+03
  7.029177e+00    3.352959e+03
  7.082181e+00    3.376880e+03
  7.135185e+00    3.311846e+03
  7.188189e+00    3.248827e+03
  7.241193e+00    3.247248e+03
  7.294197e+00    3.288064e+03
  7.347202e+00    3.283592e+03
  7.400206e+00    3.261592e+03
  7.453210e+00    3.251999e+03
  7.506214e+00    3.277597e+03
  7.559218e+00    3.328965e+03
  7.612222e+00    3.458574e+03
  7.665226e+00    3.676928e+03
  7.718230e+00    3.854272e+03
  7.771234e+00    3.798251e+03
  7.824239e+00    3.617704e+03
  7.877243e+00    3.462538e+03
  7.930247e+00    3.277170e+03
  7.983251e+00    3.146849e+03
  8.036255e+00    3.094893e+03
  8.089259e+00    3.076140e+03
  8.142263e+00    3.072029e+03
  8.195267e+00    3.064595e+03
  8.248271e+00    3.051312e+03
  8.301275e+00    3.032117e+03
  8.354280e+00    3.015736e+03
  8.407284e+00    3.010464e+03
  8.460288e+00    3.004779e+03
  8.513292e+00    3.005926e+03
  8.566296e+00    3.039538e+03
  8.619300e+00    3.060371e+03
  8.672304e+00    3.029863e+03
  8.725308e+00    2.991930e+03
  8.778312e+00    2.966569e+03
  8.831316e+00    2.953715e+03
  8.884321e+00    2.961726e+03
  8.937325e+00    2.953742e+03
  8.990329e+00    2.916878e+03
  9.043333e+00    2.862973e+03
  9.096337e+00    2.843298e+03
  9.149341e+00    2.833950e+03
  9.202345e+00    2.779504e+03
  9.255349e+00    2.728055e+03
  9.308353e+00    2.695060e+03
  9.361357e+00    2.679365e+03
  9.414362e+00    2.668420e+03
  9.467366e+00    2.667709e+03
  9.520370e+00    2.648948e+03
  9.573374e+00    2.620629e+03
  9.626378e+00    2.606255e+03
  9.679382e+00    2.600670e+03
  9.732386e+00    2.599384e+03
  9.785390e+00    2.596656e+03
  9.838394e+00    2.596444e+03
  9.891398e+00    2.605368e+03
  9.944403e+00    2.605813e+03
  9.997407e+00    2.591384e+03
  1.005041e+01    2.563040e+03
  1.010341e+01    2.521622e+03
  1.015642e+01    2.500481e+03
  1.020942e+01    2.492059e+03
  1.026243e+01    2.489536e+03
  1.031543e+01    2.512931e+03
  1.036844e+01    2.563249e+03
  1.042144e+01    2.580961e+03
  1.047444e+01    2.575440e+03
  1.052745e+01    2.556469e+03
  1.058045e+01    2.540851e+03
  1.063346e+01    2.512021e+03
  1.068646e+01    2.489173e+03
  1.073946e+01    2.468524e+03
  1.079247e+01    2.455338e+03
  1.084547e+01    2.444705e+03
  1.089848e+01    2.441663e+03
  1.095148e+01    2.441336e+03
  1.100448e+01    2.434260e+03
  1.105749e+01    2.428844e+03
  1.111049e+01    2.427947e+03
  1.116350e+01    2.418572e+03
  1.121650e+01    2.403750e+03
  1.126951e+01    2.389970e+03
  1.132251e+01    2.382947e+03
  1.137551e+01    2.373724e+03
  1.142852e+01    2.373279e+03
  1.148152e+01    2.370858e+03
  1.153453e+01    2.371104e+03
  1.158753e+01    2.366097e+03
  1.164053e+01    2.361813e+03
  1.169354e+01    2.359927e+03
  1.174654e+01    2.379805e+03
  1.179955e+01    2.369912e+03
  1.185255e+01    2.360831e+03
  1.190555e+01    2.343709e+03
  1.195856e+01    2.330653e+03
  1.201156e+01    2.320469e+03
  1.206457e+01    2.310775e+03
  1.211757e+01    2.315416e+03
  1.217057e+01    2.317117e+03
  1.222358e+01    2.314336e+03
  1.227658e+01    2.309894e+03
  1.232959e+01    2.311677e+03
  1.238259e+01    2.305846e+03
  1.243560e+01    2.310702e+03
  1.248860e+01    2.310252e+03
  1.254160e+01    2.315020e+03
  1.259461e+01    2.312818e+03
  1.264761e+01    2.303937e+03
  1.270062e+01    2.291343e+03
  1.275362e+01    2.278082e+03
  1.280662e+01    2.267515e+03
  1.285963e+01    2.258977e+03
  1.291263e+01    2.247273e+03
  1.296564e+01    2.238253e+03
  1.301864e+01    2.234771e+03
  1.307164e+01    2.228606e+03
  1.312465e+01    2.223064e+03
  1.317765e+01    2.219785e+03
  1.323066e+01    2.198358e+03
  1.328366e+01    2.186982e+03
  1.333667e+01    2.181671e+03
  1.338967e+01    2.175264e+03
  1.344267e+01    2.191219e+03
  1.349568e+01    2.187771e+03
  1.354868e+01    2.178212e+03
  1.360169e+01    2.166439e+03
  1.365469e+01    2.149864e+03
  1.370769e+01    2.142392e+03
  1.376070e+01    2.131753e+03
  1.381370e+01    2.123803e+03
  1.386671e+01    2.114818e+03
  1.391971e+01    2.107408e+03
  1.397271e+01    2.107097e+03
  1.402572e+01    2.101271e+03
  1.407872e+01    2.093770e+03
  1.413173e+01    2.087643e+03
  1.418473e+01    2.084567e+03
  1.423773e+01    2.078955e+03
  1.429074e+01    2.072594e+03
  1.434374e+01    2.074357e+03
  1.439675e+01    2.066479e+03
  1.444975e+01    2.064596e+03
  1.450276e+01    2.060145e+03
  1.455576e+01    2.053941e+03
  1.460876e+01    2.049647e+03
  1.466177e+01    2.045348e+03
  1.471477e+01    2.043536e+03
  1.476778e+01    2.044141e+03
  1.482078e+01    2.044407e+03
  1.487378e+01    2.040639e+03
  1.492679e+01    2.036164e+03
  1.497979e+01    2.032630e+03
  1.503280e+01    2.029469e+03
  1.508580e+01    2.027365e+03
  1.513880e+01    2.024414e+03
  1.519181e+01    2.034273e+03
  1.524481e+01    2.056136e+03
  1.529782e+01    2.036800e+03
  1.535082e+01    2.026866e+03
  1.540382e+01    2.020102e+03
  1.545683e+01    2.011642e+03
  1.550983e+01    2.016003e+03
  1.556284e+01    2.013386e+03
  1.561584e+01    2.006285e+03
  1.566885e+01    2.002701e+03
  1.572185e+01    2.001376e+03
  1.577485e+01    1.997146e+03
  1.582786e+01    1.993822e+03
  1.588086e+01    1.989896e+03
  1.593387e+01    1.988411e+03
  1.598687e+01    1.986652e+03
  1.603987e+01    1.977845e+03
  1.609288e+01    1.970748e+03
  1.614588e+01    1.961901e+03
  1.619889e+01    1.963836e+03
  1.625189e+01    1.967513e+03
  1.630489e+01    1.964927e+03
  1.635790e+01    1.960425e+03
  1.641090e+01    1.957620e+03
  1.646391e+01    1.951679e+03
  1.651691e+01    1.947563e+03
  1.656992e+01    1.940946e+03
  1.662292e+01    1.936471e+03
  1.667592e+01    1.936425e+03
  1.672893e+01    1.933695e+03
  1.678193e+01    1.933896e+03
  1.683494e+01    1.927418e+03
  1.688794e+01    1.927790e+03
  1.694094e+01    1.924673e+03
  1.699395e+01    1.919758e+03
  1.704695e+01    1.915641e+03
  1.709996e+01    1.913357e+03
  1.715296e+01    1.908842e+03
  1.720596e+01    1.906651e+03
  1.725897e+01    1.901776e+03
  1.731197e+01    1.898029e+03
  1.736498e+01    1.894686e+03
  1.741798e+01    1.892917e+03
  1.747098e+01    1.893082e+03
  1.752399e+01    1.889925e+03
  1.757699e+01    1.883960e+03
  1.763000e+01    1.880447e+03
  1.768300e+01    1.875248e+03
  1.773601e+01    1.872513e+03
  1.778901e+01    1.869177e+03
  1.784201e+01    1.861876e+03
  1.789502e+01    1.861748e+03
  1.794802e+01    1.854423e+03
  1.800103e+01    1.853055e+03
  1.805403e+01    1.848931e+03
  1.810703e+01    1.843466e+03
  1.816004e+01    1.839013e+03
  1.821304e+01    1.837609e+03
  1.826605e+01    1.840758e+03
  1.831905e+01    1.830669e+03
  1.837205e+01    1.826904e+03
  1.842506e+01    1.824362e+03
  1.847806e+01    1.822842e+03
  1.853107e+01    1.821845e+03
  1.858407e+01    1.819478e+03
  1.863708e+01    1.820029e+03
  1.869008e+01    1.833524e+03
  1.874308e+01    1.821952e+03
  1.879609e+01    1.817666e+03
  1.884909e+01    1.813153e+03
  1.890210e+01    1.808854e+03
  1.895510e+01    1.802149e+03
  1.900810e+01    1.799142e+03
  1.906111e+01    1.793169e+03
  1.911411e+01    1.785288e+03
  1.916712e+01    1.783390e+03
  1.922012e+01    1.777953e+03
  1.927312e+01    1.771827e+03
  1.932613e+01    1.767833e+03
  1.937913e+01    1.763116e+03
  1.943214e+01    1.757645e+03
  1.948514e+01    1.753259e+03
  1.953814e+01    1.748676e+03
  1.959115e+01    1.744313e+03
  1.964415e+01    1.738975e+03
  1.969716e+01    1.736956e+03
  1.975016e+01    1.732488e+03
  1.980317e+01    1.725632e+03
  1.985617e+01    1.721287e+03
  1.990917e+01    1.715931e+03
  1.996218e+01    1.710310e+03
  2.001518e+01    1.706996e+03
  2.006819e+01    1.698910e+03
  2.012119e+01    1.693557e+03
  2.017419e+01    1.689569e+03
  2.022720e+01    1.685078e+03
  2.028020e+01    1.677504e+03
  2.033321e+01    1.672178e+03
  2.038621e+01    1.665880e+03
  2.043921e+01    1.662210e+03
  2.049222e+01    1.656638e+03
  2.054522e+01    1.651744e+03
  2.059823e+01    1.647565e+03
  2.065123e+01    1.641171e+03
  2.070424e+01    1.639545e+03
  2.075724e+01    1.639266e+03
  2.081024e+01    1.645900e+03
  2.086325e+01    1.635250e+03
  2.091625e+01    1.618158e+03
  2.096926e+01    1.603185e+03
  2.102226e+01    1.592651e+03
  2.107526e+01    1.584188e+03
  2.112827e+01    1.574389e+03
  2.118127e+01    1.565488e+03
  2.123428e+01    1.556753e+03
  2.128728e+01    1.547510e+03
  2.134028e+01    1.539899e+03
  2.139329e+01    1.529650e+03
  2.144629e+01    1.519209e+03
  2.149930e+01    1.511744e+03
  2.155230e+01    1.503057e+03
  2.160530e+01    1.494007e+03
  2.165831e+01    1.485731e+03
  2.171131e+01    1.479825e+03
  2.176432e+01    1.473611e+03
  2.181732e+01    1.463742e+03
  2.187033e+01    1.454813e+03
  2.192333e+01    1.449086e+03
  2.197633e+01    1.439884e+03
  2.202934e+01    1.432267e+03
  2.208234e+01    1.421515e+03
  2.213535e+01    1.413198e+03
  2.218835e+01    1.405613e+03
  2.224135e+01    1.397000e+03
  2.229436e+01    1.388812e+03
  2.234736e+01    1.382115e+03
  2.240037e+01    1.371629e+03
  2.245337e+01    1.364516e+03
  2.250637e+01    1.356469e+03
  2.255938e+01    1.349462e+03
  2.261238e+01    1.353800e+03
  2.266539e+01    1.352964e+03
  2.271839e+01    1.355775e+03
  2.277140e+01    1.354964e+03
  2.282440e+01    1.353364e+03
  2.287740e+01    1.349385e+03
  2.293041e+01    1.351671e+03
  2.298341e+01    1.349472e+03
  2.303642e+01    1.349863e+03
  2.308942e+01    1.347120e+03
  2.314242e+01    1.346184e+03
  2.319543e+01    1.341600e+03
  2.324843e+01    1.336774e+03
  2.330144e+01    1.334590e+03
  2.335444e+01    1.332990e+03
  2.340744e+01    1.332334e+03
  2.346045e+01    1.330759e+03
  2.351345e+01    1.327147e+03
  2.356646e+01    1.324084e+03
  2.361946e+01    1.323122e+03
  2.367246e+01    1.323725e+03
  2.372547e+01    1.318341e+03
  2.377847e+01    1.313735e+03
  2.383148e+01    1.308019e+03
  2.388448e+01    1.303815e+03
  2.393749e+01    1.301127e+03
  2.399049e+01    1.298276e+03
  2.404349e+01    1.296059e+03
  2.409650e+01    1.289917e+03
  2.414950e+01    1.285105e+03
  2.420251e+01    1.278728e+03
  2.425551e+01    1.272770e+03
  2.430851e+01    1.268269e+03
  2.436152e+01    1.260624e+03
  2.441452e+01    1.254814e+03
  2.446753e+01    1.250070e+03
  2.452053e+01    1.241128e+03
  2.457353e+01    1.241735e+03
  2.462654e+01    1.234948e+03
  2.467954e+01    1.224185e+03
  2.473255e+01    1.219027e+03
  2.478555e+01    1.210005e+03
  2.483855e+01    1.199591e+03
  2.489156e+01    1.188541e+03
  2.494456e+01    1.179924e+03
  2.499757e+01    1.172961e+03
  2.505057e+01    1.165133e+03
  2.510358e+01    1.157068e+03
  2.515658e+01    1.153679e+03
  2.520958e+01    1.150488e+03
  2.526259e+01    1.142390e+03
  2.531559e+01    1.137268e+03
  2.536860e+01    1.130169e+03
  2.542160e+01    1.128656e+03
  2.547460e+01    1.120441e+03
  2.552761e+01    1.112729e+03
  2.558061e+01    1.108483e+03
  2.563362e+01    1.106255e+03
  2.568662e+01    1.097856e+03
  2.573962e+01    1.090308e+03
  2.579263e+01    1.081071e+03
  2.584563e+01    1.076034e+03
  2.589864e+01    1.070837e+03
  2.595164e+01    1.066655e+03
  2.600465e+01    1.064992e+03
  2.605765e+01    1.060225e+03
  2.611065e+01    1.062013e+03
  2.616366e+01    1.059484e+03
  2.621666e+01    1.048581e+03
  2.626967e+01    1.045567e+03
  2.632267e+01    1.034222e+03
  2.637567e+01    1.027183e+03
  2.642868e+01    1.019087e+03
  2.648168e+01    1.006887e+03
