# == pyFAI calibration ==
# Distance Sample to Detector: 0.2945755399789714 m
# PONI: 2.880e-01, 2.450e-01 m
# Rotations: -0.007291 -0.010887 -0.000000 rad
# 
# == Fit2d calibration ==
# Distance Sample-beamCenter: 294.601 mm
# Center: x=1437.174, y=1655.617 pix
# Tilt: 0.751 deg  TiltPlanRot: -56.193 deg
# 
# Detector Pilatus CdTe 2M	 PixelSize= 1.720e-04, 1.720e-04 m
#    Detector has a mask: True 
#    Detector has a dark current: False 
#    detector has a flat field: False 
# 
# Wavelength: 2.0732883349524408e-11 m
# Mask applied: from detector
# Dark current applied: False
# Flat field applied: False
# Polarization factor: 0.9
# Normalization factor: 1.0
# --> /gpfs/current/raw/FMue_2/FMue_2_20231024_120911_00038.dat
#        q_A^-1             I 
  3.263564e-02             nan
  8.563974e-02             nan
  1.386438e-01             nan
  1.916479e-01             nan
  2.446520e-01    3.575210e+04
  2.976561e-01    2.799589e+04
  3.506602e-01    1.506765e+04
  4.036643e-01    1.060299e+04
  4.566684e-01    9.090433e+03
  5.096725e-01    8.744535e+03
  5.626766e-01    8.548357e+03
  6.156807e-01    8.308162e+03
  6.686848e-01    8.217638e+03
  7.216890e-01    8.321027e+03
  7.746931e-01    8.346217e+03
  8.276972e-01    8.445538e+03
  8.807013e-01    8.512374e+03
  9.337054e-01    8.669027e+03
  9.867095e-01    8.814432e+03
  1.039714e+00    9.072307e+03
  1.092718e+00    9.399439e+03
  1.145722e+00    9.885305e+03
  1.198726e+00    1.050462e+04
  1.251730e+00    1.137099e+04
  1.304734e+00    1.272052e+04
  1.357738e+00    1.377314e+04
  1.410742e+00    1.402659e+04
  1.463746e+00    1.405828e+04
  1.516750e+00    1.392004e+04
  1.569755e+00    1.339564e+04
  1.622759e+00    1.271379e+04
  1.675763e+00    1.184126e+04
  1.728767e+00    1.094072e+04
  1.781771e+00    1.011455e+04
  1.834775e+00    9.429723e+03
  1.887779e+00    8.840569e+03
  1.940783e+00    8.471710e+03
  1.993787e+00    8.179825e+03
  2.046791e+00    8.112154e+03
  2.099796e+00    8.608312e+03
  2.152800e+00    1.027376e+04
  2.205804e+00    1.101178e+04
  2.258808e+00    9.311492e+03
  2.311812e+00    8.080659e+03
  2.364816e+00    7.730581e+03
  2.417820e+00    8.020588e+03
  2.470824e+00    9.617230e+03
  2.523828e+00    1.499713e+04
  2.576832e+00    1.912768e+04
  2.629837e+00    1.393850e+04
  2.682841e+00    9.446341e+03
  2.735845e+00    7.674042e+03
  2.788849e+00    6.467926e+03
  2.841853e+00    5.610681e+03
  2.894857e+00    5.232835e+03
  2.947861e+00    5.147958e+03
  3.000865e+00    5.464184e+03
  3.053869e+00    6.939958e+03
  3.106874e+00    9.283601e+03
  3.159878e+00    9.585924e+03
  3.212882e+00    8.075902e+03
  3.265886e+00    5.948172e+03
  3.318890e+00    4.887875e+03
  3.371894e+00    4.628489e+03
  3.424898e+00    4.538559e+03
  3.477902e+00    4.512376e+03
  3.530906e+00    4.504288e+03
  3.583910e+00    4.515229e+03
  3.636915e+00    4.594353e+03
  3.689919e+00    4.813015e+03
  3.742923e+00    5.374010e+03
  3.795927e+00    5.965469e+03
  3.848931e+00    5.809370e+03
  3.901935e+00    5.799068e+03
  3.954939e+00    6.940082e+03
  4.007943e+00    9.053547e+03
  4.060947e+00    9.107734e+03
  4.113951e+00    7.408231e+03
  4.166956e+00    6.431500e+03
  4.219960e+00    6.100890e+03
  4.272964e+00    6.387301e+03
  4.325968e+00    8.365994e+03
  4.378972e+00    1.240514e+04
  4.431976e+00    1.330470e+04
  4.484980e+00    1.198853e+04
  4.537984e+00    9.183745e+03
  4.590988e+00    6.550872e+03
  4.643992e+00    5.436308e+03
  4.696997e+00    5.070572e+03
  4.750001e+00    4.937140e+03
  4.803005e+00    4.934957e+03
  4.856009e+00    5.107295e+03
  4.909013e+00    5.267550e+03
  4.962017e+00    5.295067e+03
  5.015021e+00    5.580254e+03
  5.068025e+00    6.209848e+03
  5.121029e+00    6.275421e+03
  5.174033e+00    5.576711e+03
  5.227038e+00    4.888429e+03
  5.280042e+00    4.519983e+03
  5.333046e+00    4.446328e+03
  5.386050e+00    4.451146e+03
  5.439054e+00    4.280813e+03
  5.492058e+00    4.217227e+03
  5.545062e+00    3.942368e+03
  5.598066e+00    3.632823e+03
  5.651070e+00    3.516039e+03
  5.704074e+00    3.565846e+03
  5.757079e+00    3.804679e+03
  5.810083e+00    4.036373e+03
  5.863087e+00    4.186213e+03
  5.916091e+00    4.715509e+03
  5.969095e+00    5.007928e+03
  6.022099e+00    4.464201e+03
  6.075103e+00    4.004002e+03
  6.128107e+00    3.926105e+03
  6.181111e+00    4.080611e+03
  6.234115e+00    4.089392e+03
  6.287120e+00    3.926623e+03
  6.340124e+00    3.782751e+03
  6.393128e+00    3.644688e+03
  6.446132e+00    3.494467e+03
  6.499136e+00    3.450227e+03
  6.552140e+00    3.536690e+03
  6.605144e+00    3.665904e+03
  6.658148e+00    3.907163e+03
  6.711152e+00    4.220047e+03
  6.764156e+00    4.089948e+03
  6.817161e+00    3.669664e+03
  6.870165e+00    3.430209e+03
  6.923169e+00    3.413724e+03
  6.976173e+00    3.395775e+03
  7.029177e+00    3.329038e+03
  7.082181e+00    3.307201e+03
  7.135185e+00    3.233029e+03
  7.188189e+00    3.144055e+03
  7.241193e+00    3.132707e+03
  7.294197e+00    3.222469e+03
  7.347202e+00    3.418175e+03
  7.400206e+00    3.565091e+03
  7.453210e+00    3.497553e+03
  7.506214e+00    3.522223e+03
  7.559218e+00    3.844555e+03
  7.612222e+00    4.052223e+03
  7.665226e+00    3.810702e+03
  7.718230e+00    3.728095e+03
  7.771234e+00    3.734046e+03
  7.824239e+00    3.561858e+03
  7.877243e+00    3.439297e+03
  7.930247e+00    3.430030e+03
  7.983251e+00    3.547323e+03
  8.036255e+00    3.589353e+03
  8.089259e+00    3.390254e+03
  8.142263e+00    3.177301e+03
  8.195267e+00    3.068237e+03
  8.248271e+00    3.018417e+03
  8.301275e+00    2.982559e+03
  8.354280e+00    2.947008e+03
  8.407284e+00    2.930734e+03
  8.460288e+00    2.940844e+03
  8.513292e+00    2.957839e+03
  8.566296e+00    2.991490e+03
  8.619300e+00    2.980210e+03
  8.672304e+00    2.942577e+03
  8.725308e+00    2.978163e+03
  8.778312e+00    3.007230e+03
  8.831316e+00    2.952004e+03
  8.884321e+00    2.904889e+03
  8.937325e+00    2.902797e+03
  8.990329e+00    2.910789e+03
  9.043333e+00    2.915429e+03
  9.096337e+00    2.950777e+03
  9.149341e+00    2.977258e+03
  9.202345e+00    2.900260e+03
  9.255349e+00    2.798036e+03
  9.308353e+00    2.740884e+03
  9.361357e+00    2.692251e+03
  9.414362e+00    2.656817e+03
  9.467366e+00    2.683172e+03
  9.520370e+00    2.729206e+03
  9.573374e+00    2.776845e+03
  9.626378e+00    2.822209e+03
  9.679382e+00    2.816059e+03
  9.732386e+00    2.780694e+03
  9.785390e+00    2.783668e+03
  9.838394e+00    2.762449e+03
  9.891398e+00    2.702676e+03
  9.944403e+00    2.666842e+03
  9.997407e+00    2.681720e+03
  1.005041e+01    2.711436e+03
  1.010341e+01    2.734369e+03
  1.015642e+01    2.718865e+03
  1.020942e+01    2.635180e+03
  1.026243e+01    2.551408e+03
  1.031543e+01    2.519067e+03
  1.036844e+01    2.515892e+03
  1.042144e+01    2.506976e+03
  1.047444e+01    2.519736e+03
  1.052745e+01    2.533110e+03
  1.058045e+01    2.550460e+03
  1.063346e+01    2.531538e+03
  1.068646e+01    2.505816e+03
  1.073946e+01    2.491115e+03
  1.079247e+01    2.475167e+03
  1.084547e+01    2.460276e+03
  1.089848e+01    2.473912e+03
  1.095148e+01    2.516745e+03
  1.100448e+01    2.555340e+03
  1.105749e+01    2.560499e+03
  1.111049e+01    2.515651e+03
  1.116350e+01    2.461718e+03
  1.121650e+01    2.432292e+03
  1.126951e+01    2.417010e+03
  1.132251e+01    2.422184e+03
  1.137551e+01    2.442395e+03
  1.142852e+01    2.475912e+03
  1.148152e+01    2.498841e+03
  1.153453e+01    2.516214e+03
  1.158753e+01    2.533066e+03
  1.164053e+01    2.507331e+03
  1.169354e+01    2.457405e+03
  1.174654e+01    2.453508e+03
  1.179955e+01    2.446081e+03
  1.185255e+01    2.455177e+03
  1.190555e+01    2.438566e+03
  1.195856e+01    2.399185e+03
  1.201156e+01    2.362418e+03
  1.206457e+01    2.339738e+03
  1.211757e+01    2.344770e+03
  1.217057e+01    2.365147e+03
  1.222358e+01    2.388307e+03
  1.227658e+01    2.401394e+03
  1.232959e+01    2.382594e+03
  1.238259e+01    2.349219e+03
  1.243560e+01    2.336395e+03
  1.248860e+01    2.322578e+03
  1.254160e+01    2.328896e+03
  1.259461e+01    2.334191e+03
  1.264761e+01    2.331762e+03
  1.270062e+01    2.319534e+03
  1.275362e+01    2.300631e+03
  1.280662e+01    2.286665e+03
  1.285963e+01    2.278915e+03
  1.291263e+01    2.269305e+03
  1.296564e+01    2.270232e+03
  1.301864e+01    2.276589e+03
  1.307164e+01    2.281224e+03
  1.312465e+01    2.282070e+03
  1.317765e+01    2.282218e+03
  1.323066e+01    2.264198e+03
  1.328366e+01    2.265508e+03
  1.333667e+01    2.286262e+03
  1.338967e+01    2.296153e+03
  1.344267e+01    2.297365e+03
  1.349568e+01    2.264246e+03
  1.354868e+01    2.236897e+03
  1.360169e+01    2.222425e+03
  1.365469e+01    2.218542e+03
  1.370769e+01    2.225185e+03
  1.376070e+01    2.220091e+03
  1.381370e+01    2.208338e+03
  1.386671e+01    2.191687e+03
  1.391971e+01    2.177031e+03
  1.397271e+01    2.171759e+03
  1.402572e+01    2.171511e+03
  1.407872e+01    2.170836e+03
  1.413173e+01    2.165025e+03
  1.418473e+01    2.153778e+03
  1.423773e+01    2.139716e+03
  1.429074e+01    2.128750e+03
  1.434374e+01    2.132361e+03
  1.439675e+01    2.127738e+03
  1.444975e+01    2.126281e+03
  1.450276e+01    2.117807e+03
  1.455576e+01    2.109937e+03
  1.460876e+01    2.101636e+03
  1.466177e+01    2.097463e+03
  1.471477e+01    2.099015e+03
  1.476778e+01    2.100708e+03
  1.482078e+01    2.095655e+03
  1.487378e+01    2.080910e+03
  1.492679e+01    2.073205e+03
  1.497979e+01    2.068984e+03
  1.503280e+01    2.070079e+03
  1.508580e+01    2.071378e+03
  1.513880e+01    2.070881e+03
  1.519181e+01    2.078120e+03
  1.524481e+01    2.104067e+03
  1.529782e+01    2.093846e+03
  1.535082e+01    2.090980e+03
  1.540382e+01    2.088720e+03
  1.545683e+01    2.074454e+03
  1.550983e+01    2.072998e+03
  1.556284e+01    2.065717e+03
  1.561584e+01    2.061146e+03
  1.566885e+01    2.061534e+03
  1.572185e+01    2.065141e+03
  1.577485e+01    2.065963e+03
  1.582786e+01    2.058470e+03
  1.588086e+01    2.051994e+03
  1.593387e+01    2.045915e+03
  1.598687e+01    2.037485e+03
  1.603987e+01    2.030300e+03
  1.609288e+01    2.017712e+03
  1.614588e+01    2.009824e+03
  1.619889e+01    2.011279e+03
  1.625189e+01    2.016395e+03
  1.630489e+01    2.012336e+03
  1.635790e+01    2.009198e+03
  1.641090e+01    2.004829e+03
  1.646391e+01    2.000901e+03
  1.651691e+01    2.005686e+03
  1.656992e+01    2.004911e+03
  1.662292e+01    2.001762e+03
  1.667592e+01    1.999424e+03
  1.672893e+01    1.992309e+03
  1.678193e+01    1.991280e+03
  1.683494e+01    1.987709e+03
  1.688794e+01    1.988191e+03
  1.694094e+01    1.988072e+03
  1.699395e+01    1.985928e+03
  1.704695e+01    1.984478e+03
  1.709996e+01    1.982983e+03
  1.715296e+01    1.977896e+03
  1.720596e+01    1.972709e+03
  1.725897e+01    1.965100e+03
  1.731197e+01    1.960601e+03
  1.736498e+01    1.951684e+03
  1.741798e+01    1.950815e+03
  1.747098e+01    1.950894e+03
  1.752399e+01    1.949349e+03
  1.757699e+01    1.946176e+03
  1.763000e+01    1.943009e+03
  1.768300e+01    1.942707e+03
  1.773601e+01    1.940231e+03
  1.778901e+01    1.933689e+03
  1.784201e+01    1.926903e+03
  1.789502e+01    1.927225e+03
  1.794802e+01    1.920776e+03
  1.800103e+01    1.920923e+03
  1.805403e+01    1.916303e+03
  1.810703e+01    1.906970e+03
  1.816004e+01    1.901916e+03
  1.821304e+01    1.898713e+03
  1.826605e+01    1.901534e+03
  1.831905e+01    1.890297e+03
  1.837205e+01    1.887940e+03
  1.842506e+01    1.883818e+03
  1.847806e+01    1.882420e+03
  1.853107e+01    1.879633e+03
  1.858407e+01    1.880269e+03
  1.863708e+01    1.879572e+03
  1.869008e+01    1.895641e+03
  1.874308e+01    1.884917e+03
  1.879609e+01    1.881376e+03
  1.884909e+01    1.877930e+03
  1.890210e+01    1.872997e+03
  1.895510e+01    1.867448e+03
  1.900810e+01    1.867111e+03
  1.906111e+01    1.862836e+03
  1.911411e+01    1.855944e+03
  1.916712e+01    1.853663e+03
  1.922012e+01    1.850746e+03
  1.927312e+01    1.845411e+03
  1.932613e+01    1.842560e+03
  1.937913e+01    1.836461e+03
  1.943214e+01    1.832059e+03
  1.948514e+01    1.828319e+03
  1.953814e+01    1.823149e+03
  1.959115e+01    1.820858e+03
  1.964415e+01    1.813603e+03
  1.969716e+01    1.813832e+03
  1.975016e+01    1.808049e+03
  1.980317e+01    1.805088e+03
  1.985617e+01    1.801939e+03
  1.990917e+01    1.795939e+03
  1.996218e+01    1.791924e+03
  2.001518e+01    1.789010e+03
  2.006819e+01    1.781487e+03
  2.012119e+01    1.777281e+03
  2.017419e+01    1.773214e+03
  2.022720e+01    1.768477e+03
  2.028020e+01    1.759712e+03
  2.033321e+01    1.753902e+03
  2.038621e+01    1.747460e+03
  2.043921e+01    1.744704e+03
  2.049222e+01    1.739233e+03
  2.054522e+01    1.734002e+03
  2.059823e+01    1.729849e+03
  2.065123e+01    1.723920e+03
  2.070424e+01    1.719345e+03
  2.075724e+01    1.716185e+03
  2.081024e+01    1.723873e+03
  2.086325e+01    1.717562e+03
  2.091625e+01    1.701185e+03
  2.096926e+01    1.686593e+03
  2.102226e+01    1.677244e+03
  2.107526e+01    1.666535e+03
  2.112827e+01    1.655343e+03
  2.118127e+01    1.646755e+03
  2.123428e+01    1.636771e+03
  2.128728e+01    1.628456e+03
  2.134028e+01    1.618026e+03
  2.139329e+01    1.608380e+03
  2.144629e+01    1.599540e+03
  2.149930e+01    1.589966e+03
  2.155230e+01    1.582754e+03
  2.160530e+01    1.576702e+03
  2.165831e+01    1.564752e+03
  2.171131e+01    1.558246e+03
  2.176432e+01    1.554687e+03
  2.181732e+01    1.544608e+03
  2.187033e+01    1.536252e+03
  2.192333e+01    1.528628e+03
  2.197633e+01    1.517428e+03
  2.202934e+01    1.510895e+03
  2.208234e+01    1.500455e+03
  2.213535e+01    1.491732e+03
  2.218835e+01    1.483749e+03
  2.224135e+01    1.475018e+03
  2.229436e+01    1.465040e+03
  2.234736e+01    1.458339e+03
  2.240037e+01    1.447830e+03
  2.245337e+01    1.441363e+03
  2.250637e+01    1.433890e+03
  2.255938e+01    1.424638e+03
  2.261238e+01    1.426508e+03
  2.266539e+01    1.426372e+03
  2.271839e+01    1.426386e+03
  2.277140e+01    1.427898e+03
  2.282440e+01    1.426338e+03
  2.287740e+01    1.422388e+03
  2.293041e+01    1.423439e+03
  2.298341e+01    1.421380e+03
  2.303642e+01    1.420556e+03
  2.308942e+01    1.418157e+03
  2.314242e+01    1.414990e+03
  2.319543e+01    1.411139e+03
  2.324843e+01    1.405984e+03
  2.330144e+01    1.404986e+03
  2.335444e+01    1.400501e+03
  2.340744e+01    1.401269e+03
  2.346045e+01    1.401719e+03
  2.351345e+01    1.396988e+03
  2.356646e+01    1.392506e+03
  2.361946e+01    1.392841e+03
  2.367246e+01    1.392748e+03
  2.372547e+01    1.387323e+03
  2.377847e+01    1.382692e+03
  2.383148e+01    1.379431e+03
  2.388448e+01    1.375716e+03
  2.393749e+01    1.374192e+03
  2.399049e+01    1.373074e+03
  2.404349e+01    1.369968e+03
  2.409650e+01    1.368108e+03
  2.414950e+01    1.363930e+03
  2.420251e+01    1.358486e+03
  2.425551e+01    1.352984e+03
  2.430851e+01    1.349388e+03
  2.436152e+01    1.343942e+03
  2.441452e+01    1.340234e+03
  2.446753e+01    1.333327e+03
  2.452053e+01    1.324373e+03
  2.457353e+01    1.325177e+03
  2.462654e+01    1.319142e+03
  2.467954e+01    1.312107e+03
  2.473255e+01    1.300891e+03
  2.478555e+01    1.294117e+03
  2.483855e+01    1.280329e+03
  2.489156e+01    1.273082e+03
  2.494456e+01    1.263984e+03
  2.499757e+01    1.255370e+03
  2.505057e+01    1.245791e+03
  2.510358e+01    1.240070e+03
  2.515658e+01    1.231339e+03
  2.520958e+01    1.225578e+03
  2.526259e+01    1.217808e+03
  2.531559e+01    1.210064e+03
  2.536860e+01    1.204520e+03
  2.542160e+01    1.196452e+03
  2.547460e+01    1.184828e+03
  2.552761e+01    1.175034e+03
  2.558061e+01    1.176415e+03
  2.563362e+01    1.170701e+03
  2.568662e+01    1.157048e+03
  2.573962e+01    1.151683e+03
  2.579263e+01    1.144400e+03
  2.584563e+01    1.133534e+03
  2.589864e+01    1.131014e+03
  2.595164e+01    1.127393e+03
  2.600465e+01    1.127165e+03
  2.605765e+01    1.125274e+03
  2.611065e+01    1.116482e+03
  2.616366e+01    1.119056e+03
  2.621666e+01    1.105269e+03
  2.626967e+01    1.097840e+03
  2.632267e+01    1.098838e+03
  2.637567e+01    1.086930e+03
  2.642868e+01    1.069258e+03
  2.648168e+01    1.062500e+03
