# == pyFAI calibration ==
# Distance Sample to Detector: 0.2945755399789714 m
# PONI: 2.880e-01, 2.450e-01 m
# Rotations: -0.007291 -0.010887 -0.000000 rad
# 
# == Fit2d calibration ==
# Distance Sample-beamCenter: 294.601 mm
# Center: x=1437.174, y=1655.617 pix
# Tilt: 0.751 deg  TiltPlanRot: -56.193 deg
# 
# Detector Pilatus CdTe 2M	 PixelSize= 1.720e-04, 1.720e-04 m
#    Detector has a mask: True 
#    Detector has a dark current: False 
#    detector has a flat field: False 
# 
# Wavelength: 2.0732883349524408e-11 m
# Mask applied: from detector
# Dark current applied: False
# Flat field applied: False
# Polarization factor: 0.9
# Normalization factor: 1.0
# --> /gpfs/current/raw/FMue_2/FMue_2_20231024_120911_00287.dat
#        q_A^-1             I 
  3.263564e-02             nan
  8.563974e-02             nan
  1.386438e-01             nan
  1.916479e-01             nan
  2.446520e-01    3.866213e+04
  2.976561e-01    2.982775e+04
  3.506602e-01    1.595443e+04
  4.036643e-01    1.115778e+04
  4.566684e-01    9.516902e+03
  5.096725e-01    9.057466e+03
  5.626766e-01    8.738596e+03
  6.156807e-01    8.382950e+03
  6.686848e-01    8.206229e+03
  7.216890e-01    8.261139e+03
  7.746931e-01    8.247406e+03
  8.276972e-01    8.324084e+03
  8.807013e-01    8.395982e+03
  9.337054e-01    8.534097e+03
  9.867095e-01    8.692711e+03
  1.039714e+00    8.943856e+03
  1.092718e+00    9.267038e+03
  1.145722e+00    9.756511e+03
  1.198726e+00    1.034234e+04
  1.251730e+00    1.104760e+04
  1.304734e+00    1.193701e+04
  1.357738e+00    1.280285e+04
  1.410742e+00    1.350168e+04
  1.463746e+00    1.383389e+04
  1.516750e+00    1.378713e+04
  1.569755e+00    1.330017e+04
  1.622759e+00    1.263410e+04
  1.675763e+00    1.178514e+04
  1.728767e+00    1.088487e+04
  1.781771e+00    1.007898e+04
  1.834775e+00    9.404945e+03
  1.887779e+00    8.840850e+03
  1.940783e+00    8.481619e+03
  1.993787e+00    8.155106e+03
  2.046791e+00    7.969608e+03
  2.099796e+00    7.905123e+03
  2.152800e+00    7.894060e+03
  2.205804e+00    7.950827e+03
  2.258808e+00    7.969899e+03
  2.311812e+00    7.954208e+03
  2.364816e+00    7.989739e+03
  2.417820e+00    8.279227e+03
  2.470824e+00    8.910314e+03
  2.523828e+00    9.996677e+03
  2.576832e+00    1.088707e+04
  2.629837e+00    9.695888e+03
  2.682841e+00    8.144188e+03
  2.735845e+00    7.573513e+03
  2.788849e+00    6.962222e+03
  2.841853e+00    6.677784e+03
  2.894857e+00    7.343530e+03
  2.947861e+00    9.477670e+03
  3.000865e+00    1.193492e+04
  3.053869e+00    1.223998e+04
  3.106874e+00    1.055133e+04
  3.159878e+00    9.630987e+03
  3.212882e+00    8.330819e+03
  3.265886e+00    6.379149e+03
  3.318890e+00    5.516736e+03
  3.371894e+00    5.374219e+03
  3.424898e+00    5.561081e+03
  3.477902e+00    5.995977e+03
  3.530906e+00    5.964546e+03
  3.583910e+00    5.377841e+03
  3.636915e+00    4.986641e+03
  3.689919e+00    4.876515e+03
  3.742923e+00    4.887671e+03
  3.795927e+00    4.970690e+03
  3.848931e+00    5.079900e+03
  3.901935e+00    5.247107e+03
  3.954939e+00    5.469649e+03
  4.007943e+00    5.795734e+03
  4.060947e+00    6.204144e+03
  4.113951e+00    6.738298e+03
  4.166956e+00    7.639236e+03
  4.219960e+00    8.582233e+03
  4.272964e+00    7.886299e+03
  4.325968e+00    6.976510e+03
  4.378972e+00    7.404652e+03
  4.431976e+00    9.479374e+03
  4.484980e+00    1.052388e+04
  4.537984e+00    8.342874e+03
  4.590988e+00    6.310615e+03
  4.643992e+00    5.583920e+03
  4.696997e+00    5.395137e+03
  4.750001e+00    5.354894e+03
  4.803005e+00    5.416064e+03
  4.856009e+00    5.655454e+03
  4.909013e+00    6.174621e+03
  4.962017e+00    6.686658e+03
  5.015021e+00    6.410934e+03
  5.068025e+00    5.845680e+03
  5.121029e+00    5.653518e+03
  5.174033e+00    5.519277e+03
  5.227038e+00    5.111037e+03
  5.280042e+00    4.702472e+03
  5.333046e+00    4.436008e+03
  5.386050e+00    4.288708e+03
  5.439054e+00    4.291066e+03
  5.492058e+00    4.252592e+03
  5.545062e+00    3.965997e+03
  5.598066e+00    3.756562e+03
  5.651070e+00    3.698854e+03
  5.704074e+00    3.755302e+03
  5.757079e+00    3.982939e+03
  5.810083e+00    4.379508e+03
  5.863087e+00    4.437243e+03
  5.916091e+00    4.201839e+03
  5.969095e+00    4.113318e+03
  6.022099e+00    4.106956e+03
  6.075103e+00    4.133089e+03
  6.128107e+00    4.027900e+03
  6.181111e+00    3.865423e+03
  6.234115e+00    3.857012e+03
  6.287120e+00    3.938316e+03
  6.340124e+00    3.941437e+03
  6.393128e+00    3.890334e+03
  6.446132e+00    3.820992e+03
  6.499136e+00    3.788212e+03
  6.552140e+00    3.743049e+03
  6.605144e+00    3.742587e+03
  6.658148e+00    3.767919e+03
  6.711152e+00    3.667992e+03
  6.764156e+00    3.527059e+03
  6.817161e+00    3.414494e+03
  6.870165e+00    3.323776e+03
  6.923169e+00    3.270780e+03
  6.976173e+00    3.307594e+03
  7.029177e+00    3.379158e+03
  7.082181e+00    3.406737e+03
  7.135185e+00    3.356274e+03
  7.188189e+00    3.309849e+03
  7.241193e+00    3.326888e+03
  7.294197e+00    3.383024e+03
  7.347202e+00    3.361660e+03
  7.400206e+00    3.306983e+03
  7.453210e+00    3.284878e+03
  7.506214e+00    3.296271e+03
  7.559218e+00    3.334026e+03
  7.612222e+00    3.445313e+03
  7.665226e+00    3.639467e+03
  7.718230e+00    3.829349e+03
  7.771234e+00    3.784441e+03
  7.824239e+00    3.580886e+03
  7.877243e+00    3.413002e+03
  7.930247e+00    3.244437e+03
  7.983251e+00    3.141491e+03
  8.036255e+00    3.103247e+03
  8.089259e+00    3.083648e+03
  8.142263e+00    3.087579e+03
  8.195267e+00    3.083613e+03
  8.248271e+00    3.074234e+03
  8.301275e+00    3.058255e+03
  8.354280e+00    3.045712e+03
  8.407284e+00    3.045927e+03
  8.460288e+00    3.037620e+03
  8.513292e+00    3.029441e+03
  8.566296e+00    3.050829e+03
  8.619300e+00    3.062627e+03
  8.672304e+00    3.042028e+03
  8.725308e+00    3.022169e+03
  8.778312e+00    3.008387e+03
  8.831316e+00    2.999264e+03
  8.884321e+00    3.003219e+03
  8.937325e+00    2.995395e+03
  8.990329e+00    2.947249e+03
  9.043333e+00    2.882909e+03
  9.096337e+00    2.848030e+03
  9.149341e+00    2.828347e+03
  9.202345e+00    2.788008e+03
  9.255349e+00    2.746283e+03
  9.308353e+00    2.722171e+03
  9.361357e+00    2.714090e+03
  9.414362e+00    2.701236e+03
  9.467366e+00    2.701064e+03
  9.520370e+00    2.676500e+03
  9.573374e+00    2.648442e+03
  9.626378e+00    2.633819e+03
  9.679382e+00    2.629316e+03
  9.732386e+00    2.627853e+03
  9.785390e+00    2.626365e+03
  9.838394e+00    2.624237e+03
  9.891398e+00    2.628835e+03
  9.944403e+00    2.625722e+03
  9.997407e+00    2.607204e+03
  1.005041e+01    2.579217e+03
  1.010341e+01    2.540042e+03
  1.015642e+01    2.518918e+03
  1.020942e+01    2.509846e+03
  1.026243e+01    2.505877e+03
  1.031543e+01    2.526506e+03
  1.036844e+01    2.566598e+03
  1.042144e+01    2.580574e+03
  1.047444e+01    2.575116e+03
  1.052745e+01    2.561441e+03
  1.058045e+01    2.550535e+03
  1.063346e+01    2.529169e+03
  1.068646e+01    2.508037e+03
  1.073946e+01    2.487616e+03
  1.079247e+01    2.476647e+03
  1.084547e+01    2.464805e+03
  1.089848e+01    2.462183e+03
  1.095148e+01    2.459462e+03
  1.100448e+01    2.452468e+03
  1.105749e+01    2.450081e+03
  1.111049e+01    2.449812e+03
  1.116350e+01    2.438241e+03
  1.121650e+01    2.427602e+03
  1.126951e+01    2.413646e+03
  1.132251e+01    2.403478e+03
  1.137551e+01    2.392760e+03
  1.142852e+01    2.390496e+03
  1.148152e+01    2.387357e+03
  1.153453e+01    2.383300e+03
  1.158753e+01    2.377619e+03
  1.164053e+01    2.373179e+03
  1.169354e+01    2.374151e+03
  1.174654e+01    2.396168e+03
  1.179955e+01    2.387168e+03
  1.185255e+01    2.377396e+03
  1.190555e+01    2.364561e+03
  1.195856e+01    2.348610e+03
  1.201156e+01    2.340697e+03
  1.206457e+01    2.331617e+03
  1.211757e+01    2.335251e+03
  1.217057e+01    2.336373e+03
  1.222358e+01    2.335011e+03
  1.227658e+01    2.331565e+03
  1.232959e+01    2.329945e+03
  1.238259e+01    2.325908e+03
  1.243560e+01    2.326462e+03
  1.248860e+01    2.327396e+03
  1.254160e+01    2.331391e+03
  1.259461e+01    2.327695e+03
  1.264761e+01    2.320535e+03
  1.270062e+01    2.307475e+03
  1.275362e+01    2.294420e+03
  1.280662e+01    2.283948e+03
  1.285963e+01    2.278528e+03
  1.291263e+01    2.265782e+03
  1.296564e+01    2.257067e+03
  1.301864e+01    2.251921e+03
  1.307164e+01    2.246071e+03
  1.312465e+01    2.238274e+03
  1.317765e+01    2.232929e+03
  1.323066e+01    2.211554e+03
  1.328366e+01    2.201502e+03
  1.333667e+01    2.195475e+03
  1.338967e+01    2.193208e+03
  1.344267e+01    2.204989e+03
  1.349568e+01    2.200826e+03
  1.354868e+01    2.190397e+03
  1.360169e+01    2.182023e+03
  1.365469e+01    2.166076e+03
  1.370769e+01    2.157796e+03
  1.376070e+01    2.146397e+03
  1.381370e+01    2.138895e+03
  1.386671e+01    2.132298e+03
  1.391971e+01    2.124439e+03
  1.397271e+01    2.120940e+03
  1.402572e+01    2.114978e+03
  1.407872e+01    2.108302e+03
  1.413173e+01    2.101013e+03
  1.418473e+01    2.099921e+03
  1.423773e+01    2.094305e+03
  1.429074e+01    2.087094e+03
  1.434374e+01    2.089262e+03
  1.439675e+01    2.080377e+03
  1.444975e+01    2.080213e+03
  1.450276e+01    2.072492e+03
  1.455576e+01    2.067948e+03
  1.460876e+01    2.064899e+03
  1.466177e+01    2.057889e+03
  1.471477e+01    2.058083e+03
  1.476778e+01    2.059782e+03
  1.482078e+01    2.059246e+03
  1.487378e+01    2.055290e+03
  1.492679e+01    2.049034e+03
  1.497979e+01    2.047251e+03
  1.503280e+01    2.045196e+03
  1.508580e+01    2.043594e+03
  1.513880e+01    2.040787e+03
  1.519181e+01    2.046872e+03
  1.524481e+01    2.069676e+03
  1.529782e+01    2.051289e+03
  1.535082e+01    2.041658e+03
  1.540382e+01    2.033154e+03
  1.545683e+01    2.025788e+03
  1.550983e+01    2.028730e+03
  1.556284e+01    2.025483e+03
  1.561584e+01    2.019152e+03
  1.566885e+01    2.015160e+03
  1.572185e+01    2.013783e+03
  1.577485e+01    2.011039e+03
  1.582786e+01    2.006122e+03
  1.588086e+01    2.003857e+03
  1.593387e+01    2.001998e+03
  1.598687e+01    1.997279e+03
  1.603987e+01    1.991424e+03
  1.609288e+01    1.983947e+03
  1.614588e+01    1.976516e+03
  1.619889e+01    1.978059e+03
  1.625189e+01    1.982181e+03
  1.630489e+01    1.978086e+03
  1.635790e+01    1.973263e+03
  1.641090e+01    1.970839e+03
  1.646391e+01    1.965122e+03
  1.651691e+01    1.962522e+03
  1.656992e+01    1.956146e+03
  1.662292e+01    1.952930e+03
  1.667592e+01    1.951585e+03
  1.672893e+01    1.948013e+03
  1.678193e+01    1.947912e+03
  1.683494e+01    1.942083e+03
  1.688794e+01    1.941180e+03
  1.694094e+01    1.940156e+03
  1.699395e+01    1.933854e+03
  1.704695e+01    1.931673e+03
  1.709996e+01    1.927469e+03
  1.715296e+01    1.923249e+03
  1.720596e+01    1.920871e+03
  1.725897e+01    1.917246e+03
  1.731197e+01    1.913770e+03
  1.736498e+01    1.908745e+03
  1.741798e+01    1.909329e+03
  1.747098e+01    1.905847e+03
  1.752399e+01    1.904149e+03
  1.757699e+01    1.898710e+03
  1.763000e+01    1.894011e+03
  1.768300e+01    1.889300e+03
  1.773601e+01    1.887517e+03
  1.778901e+01    1.880070e+03
  1.784201e+01    1.874352e+03
  1.789502e+01    1.874231e+03
  1.794802e+01    1.867856e+03
  1.800103e+01    1.866338e+03
  1.805403e+01    1.861181e+03
  1.810703e+01    1.857619e+03
  1.816004e+01    1.853181e+03
  1.821304e+01    1.850703e+03
  1.826605e+01    1.853086e+03
  1.831905e+01    1.843354e+03
  1.837205e+01    1.841069e+03
  1.842506e+01    1.837213e+03
  1.847806e+01    1.835196e+03
  1.853107e+01    1.834082e+03
  1.858407e+01    1.832232e+03
  1.863708e+01    1.833313e+03
  1.869008e+01    1.846081e+03
  1.874308e+01    1.835438e+03
  1.879609e+01    1.830261e+03
  1.884909e+01    1.825834e+03
  1.890210e+01    1.821763e+03
  1.895510e+01    1.816536e+03
  1.900810e+01    1.813628e+03
  1.906111e+01    1.806040e+03
  1.911411e+01    1.799345e+03
  1.916712e+01    1.795761e+03
  1.922012e+01    1.791682e+03
  1.927312e+01    1.784399e+03
  1.932613e+01    1.782686e+03
  1.937913e+01    1.776129e+03
  1.943214e+01    1.771386e+03
  1.948514e+01    1.766908e+03
  1.953814e+01    1.762413e+03
  1.959115e+01    1.758142e+03
  1.964415e+01    1.751867e+03
  1.969716e+01    1.748162e+03
  1.975016e+01    1.743698e+03
  1.980317e+01    1.738927e+03
  1.985617e+01    1.734414e+03
  1.990917e+01    1.728810e+03
  1.996218e+01    1.723322e+03
  2.001518e+01    1.720473e+03
  2.006819e+01    1.712484e+03
  2.012119e+01    1.706333e+03
  2.017419e+01    1.703047e+03
  2.022720e+01    1.695672e+03
  2.028020e+01    1.690410e+03
  2.033321e+01    1.683278e+03
  2.038621e+01    1.678728e+03
  2.043921e+01    1.672358e+03
  2.049222e+01    1.669592e+03
  2.054522e+01    1.663513e+03
  2.059823e+01    1.658582e+03
  2.065123e+01    1.654325e+03
  2.070424e+01    1.651504e+03
  2.075724e+01    1.649191e+03
  2.081024e+01    1.654991e+03
  2.086325e+01    1.645926e+03
  2.091625e+01    1.628073e+03
  2.096926e+01    1.616465e+03
  2.102226e+01    1.605719e+03
  2.107526e+01    1.597007e+03
  2.112827e+01    1.584989e+03
  2.118127e+01    1.576349e+03
  2.123428e+01    1.567432e+03
  2.128728e+01    1.559089e+03
  2.134028e+01    1.549704e+03
  2.139329e+01    1.539170e+03
  2.144629e+01    1.529425e+03
  2.149930e+01    1.522003e+03
  2.155230e+01    1.513001e+03
  2.160530e+01    1.506615e+03
  2.165831e+01    1.496667e+03
  2.171131e+01    1.489588e+03
  2.176432e+01    1.484550e+03
  2.181732e+01    1.475506e+03
  2.187033e+01    1.464533e+03
  2.192333e+01    1.457954e+03
  2.197633e+01    1.449252e+03
  2.202934e+01    1.441543e+03
  2.208234e+01    1.431981e+03
  2.213535e+01    1.424299e+03
  2.218835e+01    1.414650e+03
  2.224135e+01    1.407223e+03
  2.229436e+01    1.399234e+03
  2.234736e+01    1.391322e+03
  2.240037e+01    1.382817e+03
  2.245337e+01    1.372537e+03
  2.250637e+01    1.365710e+03
  2.255938e+01    1.357553e+03
  2.261238e+01    1.361848e+03
  2.266539e+01    1.361508e+03
  2.271839e+01    1.364124e+03
  2.277140e+01    1.364190e+03
  2.282440e+01    1.361971e+03
  2.287740e+01    1.357961e+03
  2.293041e+01    1.360332e+03
  2.298341e+01    1.358962e+03
  2.303642e+01    1.358221e+03
  2.308942e+01    1.357264e+03
  2.314242e+01    1.353348e+03
  2.319543e+01    1.350556e+03
  2.324843e+01    1.343823e+03
  2.330144e+01    1.343929e+03
  2.335444e+01    1.340921e+03
  2.340744e+01    1.340600e+03
  2.346045e+01    1.338314e+03
  2.351345e+01    1.336153e+03
  2.356646e+01    1.331945e+03
  2.361946e+01    1.332440e+03
  2.367246e+01    1.330153e+03
  2.372547e+01    1.326360e+03
  2.377847e+01    1.320776e+03
  2.383148e+01    1.316208e+03
  2.388448e+01    1.315455e+03
  2.393749e+01    1.308848e+03
  2.399049e+01    1.306987e+03
  2.404349e+01    1.305278e+03
  2.409650e+01    1.300549e+03
  2.414950e+01    1.294148e+03
  2.420251e+01    1.287686e+03
  2.425551e+01    1.280995e+03
  2.430851e+01    1.277146e+03
  2.436152e+01    1.269550e+03
  2.441452e+01    1.261965e+03
  2.446753e+01    1.259878e+03
  2.452053e+01    1.249225e+03
  2.457353e+01    1.248380e+03
  2.462654e+01    1.243778e+03
  2.467954e+01    1.236627e+03
  2.473255e+01    1.225408e+03
  2.478555e+01    1.216586e+03
  2.483855e+01    1.205576e+03
  2.489156e+01    1.199729e+03
  2.494456e+01    1.190423e+03
  2.499757e+01    1.181540e+03
  2.505057e+01    1.170312e+03
  2.510358e+01    1.169762e+03
  2.515658e+01    1.161672e+03
  2.520958e+01    1.155478e+03
  2.526259e+01    1.150538e+03
  2.531559e+01    1.144990e+03
  2.536860e+01    1.140254e+03
  2.542160e+01    1.132784e+03
  2.547460e+01    1.127225e+03
  2.552761e+01    1.120562e+03
  2.558061e+01    1.115278e+03
  2.563362e+01    1.112670e+03
  2.568662e+01    1.100515e+03
  2.573962e+01    1.095110e+03
  2.579263e+01    1.089752e+03
  2.584563e+01    1.081548e+03
  2.589864e+01    1.079757e+03
  2.595164e+01    1.077203e+03
  2.600465e+01    1.074761e+03
  2.605765e+01    1.068628e+03
  2.611065e+01    1.067735e+03
  2.616366e+01    1.069807e+03
  2.621666e+01    1.054322e+03
  2.626967e+01    1.044858e+03
  2.632267e+01    1.049371e+03
  2.637567e+01    1.034122e+03
  2.642868e+01    1.015302e+03
  2.648168e+01    1.011658e+03
