# == pyFAI calibration ==
# Distance Sample to Detector: 0.2945755399789714 m
# PONI: 2.880e-01, 2.450e-01 m
# Rotations: -0.007291 -0.010887 -0.000000 rad
# 
# == Fit2d calibration ==
# Distance Sample-beamCenter: 294.601 mm
# Center: x=1437.174, y=1655.617 pix
# Tilt: 0.751 deg  TiltPlanRot: -56.193 deg
# 
# Detector Pilatus CdTe 2M	 PixelSize= 1.720e-04, 1.720e-04 m
#    Detector has a mask: True 
#    Detector has a dark current: False 
#    detector has a flat field: False 
# 
# Wavelength: 2.0732883349524408e-11 m
# Mask applied: from detector
# Dark current applied: False
# Flat field applied: False
# Polarization factor: 0.9
# Normalization factor: 1.0
# --> /gpfs/current/raw/FMue_2/FMue_2_20231024_120911_00030.dat
#        q_A^-1             I 
  3.263564e-02             nan
  8.563974e-02             nan
  1.386438e-01             nan
  1.916479e-01             nan
  2.446520e-01    3.506915e+04
  2.976561e-01    2.765428e+04
  3.506602e-01    1.490758e+04
  4.036643e-01    1.051060e+04
  4.566684e-01    9.016437e+03
  5.096725e-01    8.672289e+03
  5.626766e-01    8.484799e+03
  6.156807e-01    8.261146e+03
  6.686848e-01    8.174725e+03
  7.216890e-01    8.274468e+03
  7.746931e-01    8.307104e+03
  8.276972e-01    8.397086e+03
  8.807013e-01    8.484163e+03
  9.337054e-01    8.621237e+03
  9.867095e-01    8.781896e+03
  1.039714e+00    9.037930e+03
  1.092718e+00    9.360555e+03
  1.145722e+00    9.854442e+03
  1.198726e+00    1.045879e+04
  1.251730e+00    1.131057e+04
  1.304734e+00    1.266255e+04
  1.357738e+00    1.374013e+04
  1.410742e+00    1.396867e+04
  1.463746e+00    1.400517e+04
  1.516750e+00    1.386565e+04
  1.569755e+00    1.334372e+04
  1.622759e+00    1.267074e+04
  1.675763e+00    1.179811e+04
  1.728767e+00    1.089158e+04
  1.781771e+00    1.007515e+04
  1.834775e+00    9.394196e+03
  1.887779e+00    8.812160e+03
  1.940783e+00    8.437255e+03
  1.993787e+00    8.145054e+03
  2.046791e+00    8.080346e+03
  2.099796e+00    8.565987e+03
  2.152800e+00    1.021168e+04
  2.205804e+00    1.099984e+04
  2.258808e+00    9.296731e+03
  2.311812e+00    8.054595e+03
  2.364816e+00    7.702544e+03
  2.417820e+00    7.978588e+03
  2.470824e+00    9.542448e+03
  2.523828e+00    1.485504e+04
  2.576832e+00    1.908906e+04
  2.629837e+00    1.398366e+04
  2.682841e+00    9.436418e+03
  2.735845e+00    7.658240e+03
  2.788849e+00    6.456442e+03
  2.841853e+00    5.586465e+03
  2.894857e+00    5.206572e+03
  2.947861e+00    5.117192e+03
  3.000865e+00    5.416883e+03
  3.053869e+00    6.866688e+03
  3.106874e+00    9.235316e+03
  3.159878e+00    9.582369e+03
  3.212882e+00    8.088267e+03
  3.265886e+00    5.945839e+03
  3.318890e+00    4.869771e+03
  3.371894e+00    4.600306e+03
  3.424898e+00    4.514875e+03
  3.477902e+00    4.486666e+03
  3.530906e+00    4.475233e+03
  3.583910e+00    4.484879e+03
  3.636915e+00    4.561667e+03
  3.689919e+00    4.774869e+03
  3.742923e+00    5.329399e+03
  3.795927e+00    5.927687e+03
  3.848931e+00    5.783656e+03
  3.901935e+00    5.754806e+03
  3.954939e+00    6.875188e+03
  4.007943e+00    8.993542e+03
  4.060947e+00    9.128869e+03
  4.113951e+00    7.417463e+03
  4.166956e+00    6.407495e+03
  4.219960e+00    6.068359e+03
  4.272964e+00    6.328938e+03
  4.325968e+00    8.243887e+03
  4.378972e+00    1.231545e+04
  4.431976e+00    1.333524e+04
  4.484980e+00    1.203244e+04
  4.537984e+00    9.246141e+03
  4.590988e+00    6.561199e+03
  4.643992e+00    5.409922e+03
  4.696997e+00    5.035376e+03
  4.750001e+00    4.896952e+03
  4.803005e+00    4.893958e+03
  4.856009e+00    5.062306e+03
  4.909013e+00    5.232281e+03
  4.962017e+00    5.260401e+03
  5.015021e+00    5.536612e+03
  5.068025e+00    6.171239e+03
  5.121029e+00    6.264958e+03
  5.174033e+00    5.571598e+03
  5.227038e+00    4.869667e+03
  5.280042e+00    4.496215e+03
  5.333046e+00    4.414943e+03
  5.386050e+00    4.428977e+03
  5.439054e+00    4.260286e+03
  5.492058e+00    4.198635e+03
  5.545062e+00    3.928400e+03
  5.598066e+00    3.614096e+03
  5.651070e+00    3.491849e+03
  5.704074e+00    3.540861e+03
  5.757079e+00    3.774667e+03
  5.810083e+00    4.022768e+03
  5.863087e+00    4.161767e+03
  5.916091e+00    4.685824e+03
  5.969095e+00    5.016225e+03
  6.022099e+00    4.478096e+03
  6.075103e+00    3.996273e+03
  6.128107e+00    3.906230e+03
  6.181111e+00    4.056656e+03
  6.234115e+00    4.084257e+03
  6.287120e+00    3.918533e+03
  6.340124e+00    3.771082e+03
  6.393128e+00    3.630783e+03
  6.446132e+00    3.477621e+03
  6.499136e+00    3.428025e+03
  6.552140e+00    3.515022e+03
  6.605144e+00    3.643623e+03
  6.658148e+00    3.880005e+03
  6.711152e+00    4.207735e+03
  6.764156e+00    4.093699e+03
  6.817161e+00    3.666036e+03
  6.870165e+00    3.418302e+03
  6.923169e+00    3.393309e+03
  6.976173e+00    3.379357e+03
  7.029177e+00    3.314851e+03
  7.082181e+00    3.291094e+03
  7.135185e+00    3.218372e+03
  7.188189e+00    3.126941e+03
  7.241193e+00    3.107669e+03
  7.294197e+00    3.200115e+03
  7.347202e+00    3.390539e+03
  7.400206e+00    3.553251e+03
  7.453210e+00    3.487672e+03
  7.506214e+00    3.499608e+03
  7.559218e+00    3.821321e+03
  7.612222e+00    4.055535e+03
  7.665226e+00    3.816321e+03
  7.718230e+00    3.719155e+03
  7.771234e+00    3.732548e+03
  7.824239e+00    3.563490e+03
  7.877243e+00    3.430776e+03
  7.930247e+00    3.415532e+03
  7.983251e+00    3.532913e+03
  8.036255e+00    3.587071e+03
  8.089259e+00    3.392781e+03
  8.142263e+00    3.169396e+03
  8.195267e+00    3.053226e+03
  8.248271e+00    3.002852e+03
  8.301275e+00    2.964869e+03
  8.354280e+00    2.929461e+03
  8.407284e+00    2.913040e+03
  8.460288e+00    2.922050e+03
  8.513292e+00    2.941046e+03
  8.566296e+00    2.973841e+03
  8.619300e+00    2.963869e+03
  8.672304e+00    2.930840e+03
  8.725308e+00    2.958076e+03
  8.778312e+00    2.997167e+03
  8.831316e+00    2.943858e+03
  8.884321e+00    2.892641e+03
  8.937325e+00    2.886503e+03
  8.990329e+00    2.899319e+03
  9.043333e+00    2.904171e+03
  9.096337e+00    2.938314e+03
  9.149341e+00    2.969911e+03
  9.202345e+00    2.895621e+03
  9.255349e+00    2.789342e+03
  9.308353e+00    2.730016e+03
  9.361357e+00    2.679098e+03
  9.414362e+00    2.641254e+03
  9.467366e+00    2.666602e+03
  9.520370e+00    2.715666e+03
  9.573374e+00    2.766293e+03
  9.626378e+00    2.814669e+03
  9.679382e+00    2.811777e+03
  9.732386e+00    2.774878e+03
  9.785390e+00    2.775693e+03
  9.838394e+00    2.755759e+03
  9.891398e+00    2.696697e+03
  9.944403e+00    2.658518e+03
  9.997407e+00    2.669557e+03
  1.005041e+01    2.702327e+03
  1.010341e+01    2.727568e+03
  1.015642e+01    2.718592e+03
  1.020942e+01    2.632413e+03
  1.026243e+01    2.543215e+03
  1.031543e+01    2.506700e+03
  1.036844e+01    2.502839e+03
  1.042144e+01    2.493107e+03
  1.047444e+01    2.507854e+03
  1.052745e+01    2.524537e+03
  1.058045e+01    2.539213e+03
  1.063346e+01    2.521899e+03
  1.068646e+01    2.497725e+03
  1.073946e+01    2.479938e+03
  1.079247e+01    2.465291e+03
  1.084547e+01    2.449381e+03
  1.089848e+01    2.462264e+03
  1.095148e+01    2.502988e+03
  1.100448e+01    2.549069e+03
  1.105749e+01    2.555057e+03
  1.111049e+01    2.509764e+03
  1.116350e+01    2.452931e+03
  1.121650e+01    2.421615e+03
  1.126951e+01    2.407461e+03
  1.132251e+01    2.410698e+03
  1.137551e+01    2.431406e+03
  1.142852e+01    2.469455e+03
  1.148152e+01    2.491452e+03
  1.153453e+01    2.509915e+03
  1.158753e+01    2.529116e+03
  1.164053e+01    2.506084e+03
  1.169354e+01    2.453038e+03
  1.174654e+01    2.445350e+03
  1.179955e+01    2.436209e+03
  1.185255e+01    2.448116e+03
  1.190555e+01    2.434609e+03
  1.195856e+01    2.392720e+03
  1.201156e+01    2.352018e+03
  1.206457e+01    2.328872e+03
  1.211757e+01    2.334486e+03
  1.217057e+01    2.353942e+03
  1.222358e+01    2.381162e+03
  1.227658e+01    2.394492e+03
  1.232959e+01    2.378435e+03
  1.238259e+01    2.342724e+03
  1.243560e+01    2.325718e+03
  1.248860e+01    2.316526e+03
  1.254160e+01    2.320274e+03
  1.259461e+01    2.324673e+03
  1.264761e+01    2.323268e+03
  1.270062e+01    2.309875e+03
  1.275362e+01    2.292894e+03
  1.280662e+01    2.278108e+03
  1.285963e+01    2.267532e+03
  1.291263e+01    2.261501e+03
  1.296564e+01    2.260137e+03
  1.301864e+01    2.268930e+03
  1.307164e+01    2.272791e+03
  1.312465e+01    2.274661e+03
  1.317765e+01    2.276728e+03
  1.323066e+01    2.256395e+03
  1.328366e+01    2.258654e+03
  1.333667e+01    2.277268e+03
  1.338967e+01    2.294467e+03
  1.344267e+01    2.294564e+03
  1.349568e+01    2.261244e+03
  1.354868e+01    2.230812e+03
  1.360169e+01    2.214705e+03
  1.365469e+01    2.212086e+03
  1.370769e+01    2.218171e+03
  1.376070e+01    2.213893e+03
  1.381370e+01    2.201938e+03
  1.386671e+01    2.185276e+03
  1.391971e+01    2.168577e+03
  1.397271e+01    2.163541e+03
  1.402572e+01    2.163491e+03
  1.407872e+01    2.163372e+03
  1.413173e+01    2.158010e+03
  1.418473e+01    2.146789e+03
  1.423773e+01    2.130580e+03
  1.429074e+01    2.122187e+03
  1.434374e+01    2.123694e+03
  1.439675e+01    2.120867e+03
  1.444975e+01    2.120177e+03
  1.450276e+01    2.112125e+03
  1.455576e+01    2.100375e+03
  1.460876e+01    2.093269e+03
  1.466177e+01    2.089928e+03
  1.471477e+01    2.091380e+03
  1.476778e+01    2.094063e+03
  1.482078e+01    2.086365e+03
  1.487378e+01    2.074693e+03
  1.492679e+01    2.064093e+03
  1.497979e+01    2.058612e+03
  1.503280e+01    2.060362e+03
  1.508580e+01    2.061761e+03
  1.513880e+01    2.063804e+03
  1.519181e+01    2.069958e+03
  1.524481e+01    2.097236e+03
  1.529782e+01    2.083959e+03
  1.535082e+01    2.084236e+03
  1.540382e+01    2.083212e+03
  1.545683e+01    2.068739e+03
  1.550983e+01    2.065907e+03
  1.556284e+01    2.058405e+03
  1.561584e+01    2.053803e+03
  1.566885e+01    2.053275e+03
  1.572185e+01    2.058604e+03
  1.577485e+01    2.060996e+03
  1.582786e+01    2.052662e+03
  1.588086e+01    2.044029e+03
  1.593387e+01    2.038003e+03
  1.598687e+01    2.033917e+03
  1.603987e+01    2.022283e+03
  1.609288e+01    2.009829e+03
  1.614588e+01    2.001979e+03
  1.619889e+01    2.003247e+03
  1.625189e+01    2.008022e+03
  1.630489e+01    2.005411e+03
  1.635790e+01    2.000187e+03
  1.641090e+01    1.997709e+03
  1.646391e+01    1.992651e+03
  1.651691e+01    2.000134e+03
  1.656992e+01    1.999360e+03
  1.662292e+01    1.996362e+03
  1.667592e+01    1.992644e+03
  1.672893e+01    1.985330e+03
  1.678193e+01    1.983907e+03
  1.683494e+01    1.980460e+03
  1.688794e+01    1.982723e+03
  1.694094e+01    1.982288e+03
  1.699395e+01    1.980286e+03
  1.704695e+01    1.976347e+03
  1.709996e+01    1.975058e+03
  1.715296e+01    1.972217e+03
  1.720596e+01    1.967642e+03
  1.725897e+01    1.959608e+03
  1.731197e+01    1.952563e+03
  1.736498e+01    1.946863e+03
  1.741798e+01    1.945506e+03
  1.747098e+01    1.945439e+03
  1.752399e+01    1.940972e+03
  1.757699e+01    1.936606e+03
  1.763000e+01    1.936050e+03
  1.768300e+01    1.936729e+03
  1.773601e+01    1.933248e+03
  1.778901e+01    1.928659e+03
  1.784201e+01    1.920952e+03
  1.789502e+01    1.921118e+03
  1.794802e+01    1.916601e+03
  1.800103e+01    1.915855e+03
  1.805403e+01    1.911062e+03
  1.810703e+01    1.904289e+03
  1.816004e+01    1.897292e+03
  1.821304e+01    1.892176e+03
  1.826605e+01    1.895715e+03
  1.831905e+01    1.885944e+03
  1.837205e+01    1.881516e+03
  1.842506e+01    1.878604e+03
  1.847806e+01    1.876653e+03
  1.853107e+01    1.874438e+03
  1.858407e+01    1.873359e+03
  1.863708e+01    1.873087e+03
  1.869008e+01    1.890060e+03
  1.874308e+01    1.881831e+03
  1.879609e+01    1.876464e+03
  1.884909e+01    1.870982e+03
  1.890210e+01    1.870055e+03
  1.895510e+01    1.864260e+03
  1.900810e+01    1.863481e+03
  1.906111e+01    1.859209e+03
  1.911411e+01    1.852883e+03
  1.916712e+01    1.850569e+03
  1.922012e+01    1.847501e+03
  1.927312e+01    1.840191e+03
  1.932613e+01    1.839583e+03
  1.937913e+01    1.833155e+03
  1.943214e+01    1.827902e+03
  1.948514e+01    1.826083e+03
  1.953814e+01    1.820779e+03
  1.959115e+01    1.816846e+03
  1.964415e+01    1.811294e+03
  1.969716e+01    1.809756e+03
  1.975016e+01    1.806067e+03
  1.980317e+01    1.801859e+03
  1.985617e+01    1.797924e+03
  1.990917e+01    1.792451e+03
  1.996218e+01    1.788404e+03
  2.001518e+01    1.786149e+03
  2.006819e+01    1.778978e+03
  2.012119e+01    1.774760e+03
  2.017419e+01    1.770878e+03
  2.022720e+01    1.766316e+03
  2.028020e+01    1.759754e+03
  2.033321e+01    1.752566e+03
  2.038621e+01    1.745043e+03
  2.043921e+01    1.741442e+03
  2.049222e+01    1.738103e+03
  2.054522e+01    1.733178e+03
  2.059823e+01    1.727643e+03
  2.065123e+01    1.722436e+03
  2.070424e+01    1.717519e+03
  2.075724e+01    1.716045e+03
  2.081024e+01    1.723335e+03
  2.086325e+01    1.715011e+03
  2.091625e+01    1.699683e+03
  2.096926e+01    1.686626e+03
  2.102226e+01    1.675707e+03
  2.107526e+01    1.667320e+03
  2.112827e+01    1.655719e+03
  2.118127e+01    1.646336e+03
  2.123428e+01    1.635883e+03
  2.128728e+01    1.626086e+03
  2.134028e+01    1.617142e+03
  2.139329e+01    1.607183e+03
  2.144629e+01    1.597624e+03
  2.149930e+01    1.590413e+03
  2.155230e+01    1.581668e+03
  2.160530e+01    1.576205e+03
  2.165831e+01    1.564231e+03
  2.171131e+01    1.558132e+03
  2.176432e+01    1.554702e+03
  2.181732e+01    1.545568e+03
  2.187033e+01    1.534837e+03
  2.192333e+01    1.528447e+03
  2.197633e+01    1.519901e+03
  2.202934e+01    1.510062e+03
  2.208234e+01    1.499572e+03
  2.213535e+01    1.491071e+03
  2.218835e+01    1.482242e+03
  2.224135e+01    1.474006e+03
  2.229436e+01    1.465678e+03
  2.234736e+01    1.458347e+03
  2.240037e+01    1.447622e+03
  2.245337e+01    1.440375e+03
  2.250637e+01    1.433991e+03
  2.255938e+01    1.425486e+03
  2.261238e+01    1.426857e+03
  2.266539e+01    1.425903e+03
  2.271839e+01    1.428311e+03
  2.277140e+01    1.427125e+03
  2.282440e+01    1.427581e+03
  2.287740e+01    1.422931e+03
  2.293041e+01    1.423411e+03
  2.298341e+01    1.420752e+03
  2.303642e+01    1.421921e+03
  2.308942e+01    1.419366e+03
  2.314242e+01    1.414995e+03
  2.319543e+01    1.413211e+03
  2.324843e+01    1.406716e+03
  2.330144e+01    1.405026e+03
  2.335444e+01    1.402346e+03
  2.340744e+01    1.399938e+03
  2.346045e+01    1.403171e+03
  2.351345e+01    1.398269e+03
  2.356646e+01    1.393897e+03
  2.361946e+01    1.393731e+03
  2.367246e+01    1.392880e+03
  2.372547e+01    1.388389e+03
  2.377847e+01    1.383493e+03
  2.383148e+01    1.377544e+03
  2.388448e+01    1.375861e+03
  2.393749e+01    1.371789e+03
  2.399049e+01    1.372842e+03
  2.404349e+01    1.372907e+03
  2.409650e+01    1.368135e+03
  2.414950e+01    1.363702e+03
  2.420251e+01    1.358330e+03
  2.425551e+01    1.355556e+03
  2.430851e+01    1.349801e+03
  2.436152e+01    1.344259e+03
  2.441452e+01    1.342089e+03
  2.446753e+01    1.338321e+03
  2.452053e+01    1.332425e+03
  2.457353e+01    1.326831e+03
  2.462654e+01    1.323760e+03
  2.467954e+01    1.316654e+03
  2.473255e+01    1.305085e+03
  2.478555e+01    1.297120e+03
  2.483855e+01    1.285071e+03
  2.489156e+01    1.278528e+03
  2.494456e+01    1.268034e+03
  2.499757e+01    1.258721e+03
  2.505057e+01    1.247058e+03
  2.510358e+01    1.240684e+03
  2.515658e+01    1.233401e+03
  2.520958e+01    1.228579e+03
  2.526259e+01    1.214443e+03
  2.531559e+01    1.211238e+03
  2.536860e+01    1.203746e+03
  2.542160e+01    1.198294e+03
  2.547460e+01    1.186353e+03
  2.552761e+01    1.176397e+03
  2.558061e+01    1.173743e+03
  2.563362e+01    1.174509e+03
  2.568662e+01    1.160848e+03
  2.573962e+01    1.153907e+03
  2.579263e+01    1.149338e+03
  2.584563e+01    1.135812e+03
  2.589864e+01    1.132158e+03
  2.595164e+01    1.125645e+03
  2.600465e+01    1.126545e+03
  2.605765e+01    1.125365e+03
  2.611065e+01    1.120404e+03
  2.616366e+01    1.118530e+03
  2.621666e+01    1.115332e+03
  2.626967e+01    1.102571e+03
  2.632267e+01    1.101102e+03
  2.637567e+01    1.094093e+03
  2.642868e+01    1.075732e+03
  2.648168e+01    1.055548e+03
