# == pyFAI calibration ==
# Distance Sample to Detector: 0.2945755399789714 m
# PONI: 2.880e-01, 2.450e-01 m
# Rotations: -0.007291 -0.010887 -0.000000 rad
# 
# == Fit2d calibration ==
# Distance Sample-beamCenter: 294.601 mm
# Center: x=1437.174, y=1655.617 pix
# Tilt: 0.751 deg  TiltPlanRot: -56.193 deg
# 
# Detector Pilatus CdTe 2M	 PixelSize= 1.720e-04, 1.720e-04 m
#    Detector has a mask: True 
#    Detector has a dark current: False 
#    detector has a flat field: False 
# 
# Wavelength: 2.0732883349524408e-11 m
# Mask applied: from detector
# Dark current applied: False
# Flat field applied: False
# Polarization factor: 0.9
# Normalization factor: 1.0
# --> /gpfs/current/raw/FMue_2/FMue_2_20231024_120911_00203.dat
#        q_A^-1             I 
  3.263564e-02             nan
  8.563974e-02             nan
  1.386438e-01             nan
  1.916479e-01             nan
  2.446520e-01    3.957185e+04
  2.976561e-01    3.025116e+04
  3.506602e-01    1.604220e+04
  4.036643e-01    1.122810e+04
  4.566684e-01    9.595467e+03
  5.096725e-01    9.168183e+03
  5.626766e-01    8.871426e+03
  6.156807e-01    8.514412e+03
  6.686848e-01    8.341555e+03
  7.216890e-01    8.373425e+03
  7.746931e-01    8.356768e+03
  8.276972e-01    8.430479e+03
  8.807013e-01    8.492626e+03
  9.337054e-01    8.637071e+03
  9.867095e-01    8.776825e+03
  1.039714e+00    9.037986e+03
  1.092718e+00    9.369875e+03
  1.145722e+00    9.852020e+03
  1.198726e+00    1.043723e+04
  1.251730e+00    1.113396e+04
  1.304734e+00    1.204645e+04
  1.357738e+00    1.290488e+04
  1.410742e+00    1.359881e+04
  1.463746e+00    1.394437e+04
  1.516750e+00    1.390087e+04
  1.569755e+00    1.340978e+04
  1.622759e+00    1.275651e+04
  1.675763e+00    1.190777e+04
  1.728767e+00    1.101926e+04
  1.781771e+00    1.021520e+04
  1.834775e+00    9.556007e+03
  1.887779e+00    8.997250e+03
  1.940783e+00    8.644429e+03
  1.993787e+00    8.344629e+03
  2.046791e+00    8.176009e+03
  2.099796e+00    8.133026e+03
  2.152800e+00    8.141166e+03
  2.205804e+00    8.229181e+03
  2.258808e+00    8.302244e+03
  2.311812e+00    8.341825e+03
  2.364816e+00    8.420005e+03
  2.417820e+00    8.765492e+03
  2.470824e+00    9.506394e+03
  2.523828e+00    1.112033e+04
  2.576832e+00    1.299063e+04
  2.629837e+00    1.096034e+04
  2.682841e+00    8.491970e+03
  2.735845e+00    7.794625e+03
  2.788849e+00    7.159015e+03
  2.841853e+00    6.877932e+03
  2.894857e+00    7.900589e+03
  2.947861e+00    1.138331e+04
  3.000865e+00    1.282988e+04
  3.053869e+00    9.419439e+03
  3.106874e+00    8.068363e+03
  3.159878e+00    8.651395e+03
  3.212882e+00    7.876864e+03
  3.265886e+00    6.034907e+03
  3.318890e+00    5.134400e+03
  3.371894e+00    4.897444e+03
  3.424898e+00    4.806022e+03
  3.477902e+00    4.772354e+03
  3.530906e+00    4.738277e+03
  3.583910e+00    4.722316e+03
  3.636915e+00    4.738579e+03
  3.689919e+00    4.784339e+03
  3.742923e+00    4.861164e+03
  3.795927e+00    4.981925e+03
  3.848931e+00    5.131579e+03
  3.901935e+00    5.323827e+03
  3.954939e+00    5.549566e+03
  4.007943e+00    5.907105e+03
  4.060947e+00    6.415925e+03
  4.113951e+00    7.246282e+03
  4.166956e+00    9.045134e+03
  4.219960e+00    1.105134e+04
  4.272964e+00    9.349078e+03
  4.325968e+00    7.247555e+03
  4.378972e+00    7.400685e+03
  4.431976e+00    9.473112e+03
  4.484980e+00    1.068429e+04
  4.537984e+00    8.592092e+03
  4.590988e+00    6.482827e+03
  4.643992e+00    5.715224e+03
  4.696997e+00    5.516004e+03
  4.750001e+00    5.477653e+03
  4.803005e+00    5.552600e+03
  4.856009e+00    5.843083e+03
  4.909013e+00    6.431798e+03
  4.962017e+00    6.654716e+03
  5.015021e+00    6.068178e+03
  5.068025e+00    5.731281e+03
  5.121029e+00    5.895006e+03
  5.174033e+00    5.981810e+03
  5.227038e+00    5.346900e+03
  5.280042e+00    4.729242e+03
  5.333046e+00    4.414231e+03
  5.386050e+00    4.251062e+03
  5.439054e+00    4.242404e+03
  5.492058e+00    4.211480e+03
  5.545062e+00    3.917745e+03
  5.598066e+00    3.680567e+03
  5.651070e+00    3.585273e+03
  5.704074e+00    3.557954e+03
  5.757079e+00    3.567154e+03
  5.810083e+00    3.602981e+03
  5.863087e+00    3.705745e+03
  5.916091e+00    3.907232e+03
  5.969095e+00    4.099561e+03
  6.022099e+00    4.056506e+03
  6.075103e+00    3.933487e+03
  6.128107e+00    3.853865e+03
  6.181111e+00    3.827920e+03
  6.234115e+00    3.894970e+03
  6.287120e+00    4.026706e+03
  6.340124e+00    4.071231e+03
  6.393128e+00    4.074407e+03
  6.446132e+00    4.088328e+03
  6.499136e+00    4.127024e+03
  6.552140e+00    4.052760e+03
  6.605144e+00    4.079558e+03
  6.658148e+00    4.185563e+03
  6.711152e+00    4.008570e+03
  6.764156e+00    3.701635e+03
  6.817161e+00    3.512938e+03
  6.870165e+00    3.389993e+03
  6.923169e+00    3.318327e+03
  6.976173e+00    3.343014e+03
  7.029177e+00    3.401814e+03
  7.082181e+00    3.449649e+03
  7.135185e+00    3.435651e+03
  7.188189e+00    3.430234e+03
  7.241193e+00    3.527844e+03
  7.294197e+00    3.671062e+03
  7.347202e+00    3.594930e+03
  7.400206e+00    3.410648e+03
  7.453210e+00    3.313359e+03
  7.506214e+00    3.293241e+03
  7.559218e+00    3.292771e+03
  7.612222e+00    3.341406e+03
  7.665226e+00    3.491377e+03
  7.718230e+00    3.734325e+03
  7.771234e+00    3.735251e+03
  7.824239e+00    3.461812e+03
  7.877243e+00    3.243845e+03
  7.930247e+00    3.127067e+03
  7.983251e+00    3.083991e+03
  8.036255e+00    3.074215e+03
  8.089259e+00    3.078040e+03
  8.142263e+00    3.088429e+03
  8.195267e+00    3.097268e+03
  8.248271e+00    3.097119e+03
  8.301275e+00    3.092293e+03
  8.354280e+00    3.098066e+03
  8.407284e+00    3.112309e+03
  8.460288e+00    3.103209e+03
  8.513292e+00    3.059985e+03
  8.566296e+00    3.040317e+03
  8.619300e+00    3.032991e+03
  8.672304e+00    3.040869e+03
  8.725308e+00    3.070615e+03
  8.778312e+00    3.097663e+03
  8.831316e+00    3.113735e+03
  8.884321e+00    3.116101e+03
  8.937325e+00    3.097314e+03
  8.990329e+00    3.022968e+03
  9.043333e+00    2.911188e+03
  9.096337e+00    2.827170e+03
  9.149341e+00    2.793865e+03
  9.202345e+00    2.773385e+03
  9.255349e+00    2.763951e+03
  9.308353e+00    2.764810e+03
  9.361357e+00    2.774511e+03
  9.414362e+00    2.779227e+03
  9.467366e+00    2.777353e+03
  9.520370e+00    2.739518e+03
  9.573374e+00    2.703594e+03
  9.626378e+00    2.685406e+03
  9.679382e+00    2.680990e+03
  9.732386e+00    2.688687e+03
  9.785390e+00    2.688606e+03
  9.838394e+00    2.684219e+03
  9.891398e+00    2.678431e+03
  9.944403e+00    2.658786e+03
  9.997407e+00    2.632980e+03
  1.005041e+01    2.604014e+03
  1.010341e+01    2.561693e+03
  1.015642e+01    2.537670e+03
  1.020942e+01    2.528724e+03
  1.026243e+01    2.522086e+03
  1.031543e+01    2.528582e+03
  1.036844e+01    2.548868e+03
  1.042144e+01    2.547168e+03
  1.047444e+01    2.547817e+03
  1.052745e+01    2.544913e+03
  1.058045e+01    2.551114e+03
  1.063346e+01    2.547775e+03
  1.068646e+01    2.542449e+03
  1.073946e+01    2.526929e+03
  1.079247e+01    2.510937e+03
  1.084547e+01    2.494851e+03
  1.089848e+01    2.491584e+03
  1.095148e+01    2.492272e+03
  1.100448e+01    2.486484e+03
  1.105749e+01    2.485845e+03
  1.111049e+01    2.490713e+03
  1.116350e+01    2.481026e+03
  1.121650e+01    2.467611e+03
  1.126951e+01    2.449952e+03
  1.132251e+01    2.436734e+03
  1.137551e+01    2.427140e+03
  1.142852e+01    2.420004e+03
  1.148152e+01    2.407216e+03
  1.153453e+01    2.394228e+03
  1.158753e+01    2.385793e+03
  1.164053e+01    2.381366e+03
  1.169354e+01    2.383780e+03
  1.174654e+01    2.412746e+03
  1.179955e+01    2.409729e+03
  1.185255e+01    2.407179e+03
  1.190555e+01    2.393793e+03
  1.195856e+01    2.379971e+03
  1.201156e+01    2.371083e+03
  1.206457e+01    2.364132e+03
  1.211757e+01    2.369693e+03
  1.217057e+01    2.373178e+03
  1.222358e+01    2.372195e+03
  1.227658e+01    2.368511e+03
  1.232959e+01    2.369017e+03
  1.238259e+01    2.354386e+03
  1.243560e+01    2.355933e+03
  1.248860e+01    2.349793e+03
  1.254160e+01    2.353463e+03
  1.259461e+01    2.350586e+03
  1.264761e+01    2.344527e+03
  1.270062e+01    2.333002e+03
  1.275362e+01    2.323044e+03
  1.280662e+01    2.315553e+03
  1.285963e+01    2.308538e+03
  1.291263e+01    2.297785e+03
  1.296564e+01    2.285584e+03
  1.301864e+01    2.278551e+03
  1.307164e+01    2.268317e+03
  1.312465e+01    2.256641e+03
  1.317765e+01    2.248464e+03
  1.323066e+01    2.231274e+03
  1.328366e+01    2.223740e+03
  1.333667e+01    2.218532e+03
  1.338967e+01    2.212980e+03
  1.344267e+01    2.228001e+03
  1.349568e+01    2.221674e+03
  1.354868e+01    2.215551e+03
  1.360169e+01    2.206835e+03
  1.365469e+01    2.195562e+03
  1.370769e+01    2.186129e+03
  1.376070e+01    2.173274e+03
  1.381370e+01    2.165267e+03
  1.386671e+01    2.157286e+03
  1.391971e+01    2.148840e+03
  1.397271e+01    2.147121e+03
  1.402572e+01    2.142441e+03
  1.407872e+01    2.135012e+03
  1.413173e+01    2.129111e+03
  1.418473e+01    2.126879e+03
  1.423773e+01    2.120196e+03
  1.429074e+01    2.112207e+03
  1.434374e+01    2.111737e+03
  1.439675e+01    2.101743e+03
  1.444975e+01    2.101887e+03
  1.450276e+01    2.094316e+03
  1.455576e+01    2.091863e+03
  1.460876e+01    2.090258e+03
  1.466177e+01    2.087726e+03
  1.471477e+01    2.088471e+03
  1.476778e+01    2.088007e+03
  1.482078e+01    2.088302e+03
  1.487378e+01    2.083003e+03
  1.492679e+01    2.079480e+03
  1.497979e+01    2.073664e+03
  1.503280e+01    2.072128e+03
  1.508580e+01    2.068353e+03
  1.513880e+01    2.066803e+03
  1.519181e+01    2.073442e+03
  1.524481e+01    2.095560e+03
  1.529782e+01    2.076245e+03
  1.535082e+01    2.067233e+03
  1.540382e+01    2.060369e+03
  1.545683e+01    2.049461e+03
  1.550983e+01    2.054347e+03
  1.556284e+01    2.050517e+03
  1.561584e+01    2.045359e+03
  1.566885e+01    2.039454e+03
  1.572185e+01    2.038446e+03
  1.577485e+01    2.035059e+03
  1.582786e+01    2.030248e+03
  1.588086e+01    2.028396e+03
  1.593387e+01    2.025725e+03
  1.598687e+01    2.021059e+03
  1.603987e+01    2.013552e+03
  1.609288e+01    2.004682e+03
  1.614588e+01    2.001283e+03
  1.619889e+01    2.002020e+03
  1.625189e+01    2.007034e+03
  1.630489e+01    2.001427e+03
  1.635790e+01    1.998944e+03
  1.641090e+01    1.994007e+03
  1.646391e+01    1.988309e+03
  1.651691e+01    1.986819e+03
  1.656992e+01    1.981037e+03
  1.662292e+01    1.976338e+03
  1.667592e+01    1.975480e+03
  1.672893e+01    1.973526e+03
  1.678193e+01    1.972565e+03
  1.683494e+01    1.968002e+03
  1.688794e+01    1.968798e+03
  1.694094e+01    1.965421e+03
  1.699395e+01    1.960936e+03
  1.704695e+01    1.957833e+03
  1.709996e+01    1.955961e+03
  1.715296e+01    1.950432e+03
  1.720596e+01    1.948066e+03
  1.725897e+01    1.942934e+03
  1.731197e+01    1.940992e+03
  1.736498e+01    1.935463e+03
  1.741798e+01    1.932669e+03
  1.747098e+01    1.931316e+03
  1.752399e+01    1.928493e+03
  1.757699e+01    1.923105e+03
  1.763000e+01    1.919749e+03
  1.768300e+01    1.915363e+03
  1.773601e+01    1.911703e+03
  1.778901e+01    1.906593e+03
  1.784201e+01    1.900949e+03
  1.789502e+01    1.897515e+03
  1.794802e+01    1.893296e+03
  1.800103e+01    1.891420e+03
  1.805403e+01    1.887932e+03
  1.810703e+01    1.882444e+03
  1.816004e+01    1.879054e+03
  1.821304e+01    1.875562e+03
  1.826605e+01    1.879362e+03
  1.831905e+01    1.871103e+03
  1.837205e+01    1.867037e+03
  1.842506e+01    1.863981e+03
  1.847806e+01    1.862382e+03
  1.853107e+01    1.861090e+03
  1.858407e+01    1.858821e+03
  1.863708e+01    1.859186e+03
  1.869008e+01    1.874042e+03
  1.874308e+01    1.864768e+03
  1.879609e+01    1.857005e+03
  1.884909e+01    1.853186e+03
  1.890210e+01    1.850565e+03
  1.895510e+01    1.844535e+03
  1.900810e+01    1.841079e+03
  1.906111e+01    1.833210e+03
  1.911411e+01    1.828827e+03
  1.916712e+01    1.823614e+03
  1.922012e+01    1.821511e+03
  1.927312e+01    1.812606e+03
  1.932613e+01    1.810931e+03
  1.937913e+01    1.804561e+03
  1.943214e+01    1.799996e+03
  1.948514e+01    1.796275e+03
  1.953814e+01    1.791363e+03
  1.959115e+01    1.787252e+03
  1.964415e+01    1.780526e+03
  1.969716e+01    1.777739e+03
  1.975016e+01    1.774817e+03
  1.980317e+01    1.768916e+03
  1.985617e+01    1.764110e+03
  1.990917e+01    1.759201e+03
  1.996218e+01    1.753341e+03
  2.001518e+01    1.749842e+03
  2.006819e+01    1.742643e+03
  2.012119e+01    1.735865e+03
  2.017419e+01    1.731320e+03
  2.022720e+01    1.725540e+03
  2.028020e+01    1.717913e+03
  2.033321e+01    1.711903e+03
  2.038621e+01    1.706491e+03
  2.043921e+01    1.702178e+03
  2.049222e+01    1.697454e+03
  2.054522e+01    1.691029e+03
  2.059823e+01    1.687438e+03
  2.065123e+01    1.681623e+03
  2.070424e+01    1.678866e+03
  2.075724e+01    1.677147e+03
  2.081024e+01    1.685071e+03
  2.086325e+01    1.673797e+03
  2.091625e+01    1.658529e+03
  2.096926e+01    1.644651e+03
  2.102226e+01    1.634189e+03
  2.107526e+01    1.625700e+03
  2.112827e+01    1.613593e+03
  2.118127e+01    1.604598e+03
  2.123428e+01    1.593937e+03
  2.128728e+01    1.587599e+03
  2.134028e+01    1.578060e+03
  2.139329e+01    1.568965e+03
  2.144629e+01    1.558730e+03
  2.149930e+01    1.550830e+03
  2.155230e+01    1.541540e+03
  2.160530e+01    1.533648e+03
  2.165831e+01    1.523841e+03
  2.171131e+01    1.517705e+03
  2.176432e+01    1.511423e+03
  2.181732e+01    1.502068e+03
  2.187033e+01    1.490971e+03
  2.192333e+01    1.486713e+03
  2.197633e+01    1.476392e+03
  2.202934e+01    1.468572e+03
  2.208234e+01    1.458468e+03
  2.213535e+01    1.449947e+03
  2.218835e+01    1.441244e+03
  2.224135e+01    1.433151e+03
  2.229436e+01    1.425003e+03
  2.234736e+01    1.417648e+03
  2.240037e+01    1.407660e+03
  2.245337e+01    1.400167e+03
  2.250637e+01    1.391636e+03
  2.255938e+01    1.384867e+03
  2.261238e+01    1.387557e+03
  2.266539e+01    1.387871e+03
  2.271839e+01    1.389113e+03
  2.277140e+01    1.388006e+03
  2.282440e+01    1.388385e+03
  2.287740e+01    1.385121e+03
  2.293041e+01    1.384877e+03
  2.298341e+01    1.382814e+03
  2.303642e+01    1.382450e+03
  2.308942e+01    1.380025e+03
  2.314242e+01    1.379930e+03
  2.319543e+01    1.374080e+03
  2.324843e+01    1.370063e+03
  2.330144e+01    1.368675e+03
  2.335444e+01    1.366212e+03
  2.340744e+01    1.365715e+03
  2.346045e+01    1.363678e+03
  2.351345e+01    1.359720e+03
  2.356646e+01    1.356572e+03
  2.361946e+01    1.356972e+03
  2.367246e+01    1.357593e+03
  2.372547e+01    1.348937e+03
  2.377847e+01    1.346906e+03
  2.383148e+01    1.341187e+03
  2.388448e+01    1.338153e+03
  2.393749e+01    1.333542e+03
  2.399049e+01    1.331104e+03
  2.404349e+01    1.329729e+03
  2.409650e+01    1.325256e+03
  2.414950e+01    1.318667e+03
  2.420251e+01    1.312861e+03
  2.425551e+01    1.308342e+03
  2.430851e+01    1.301584e+03
  2.436152e+01    1.297369e+03
  2.441452e+01    1.290792e+03
  2.446753e+01    1.285321e+03
  2.452053e+01    1.277128e+03
  2.457353e+01    1.272251e+03
  2.462654e+01    1.269827e+03
  2.467954e+01    1.262778e+03
  2.473255e+01    1.253986e+03
  2.478555e+01    1.243285e+03
  2.483855e+01    1.233929e+03
  2.489156e+01    1.224092e+03
  2.494456e+01    1.213778e+03
  2.499757e+01    1.205481e+03
  2.505057e+01    1.197634e+03
  2.510358e+01    1.191692e+03
  2.515658e+01    1.184890e+03
  2.520958e+01    1.180719e+03
  2.526259e+01    1.172844e+03
  2.531559e+01    1.167818e+03
  2.536860e+01    1.161301e+03
  2.542160e+01    1.157532e+03
  2.547460e+01    1.148793e+03
  2.552761e+01    1.139715e+03
  2.558061e+01    1.139300e+03
  2.563362e+01    1.133834e+03
  2.568662e+01    1.125617e+03
  2.573962e+01    1.116269e+03
  2.579263e+01    1.109161e+03
  2.584563e+01    1.100387e+03
  2.589864e+01    1.100396e+03
  2.595164e+01    1.095207e+03
  2.600465e+01    1.091734e+03
  2.605765e+01    1.090425e+03
  2.611065e+01    1.091608e+03
  2.616366e+01    1.079368e+03
  2.621666e+01    1.076968e+03
  2.626967e+01    1.066427e+03
  2.632267e+01    1.068917e+03
  2.637567e+01    1.053320e+03
  2.642868e+01    1.038448e+03
  2.648168e+01    9.958464e+02
