# == pyFAI calibration ==
# Distance Sample to Detector: 0.2945755399789714 m
# PONI: 2.880e-01, 2.450e-01 m
# Rotations: -0.007291 -0.010887 -0.000000 rad
# 
# == Fit2d calibration ==
# Distance Sample-beamCenter: 294.601 mm
# Center: x=1437.174, y=1655.617 pix
# Tilt: 0.751 deg  TiltPlanRot: -56.193 deg
# 
# Detector Pilatus CdTe 2M	 PixelSize= 1.720e-04, 1.720e-04 m
#    Detector has a mask: True 
#    Detector has a dark current: False 
#    detector has a flat field: False 
# 
# Wavelength: 2.0732883349524408e-11 m
# Mask applied: from detector
# Dark current applied: False
# Flat field applied: False
# Polarization factor: 0.9
# Normalization factor: 1.0
# --> /gpfs/current/raw/FMue_2/FMue_2_20231024_120911_00009.dat
#        q_A^-1             I 
  3.263564e-02             nan
  8.563974e-02             nan
  1.386438e-01             nan
  1.916479e-01             nan
  2.446520e-01    3.420089e+04
  2.976561e-01    2.701903e+04
  3.506602e-01    1.457362e+04
  4.036643e-01    1.025813e+04
  4.566684e-01    8.827558e+03
  5.096725e-01    8.499943e+03
  5.626766e-01    8.328580e+03
  6.156807e-01    8.136233e+03
  6.686848e-01    8.093099e+03
  7.216890e-01    8.220953e+03
  7.746931e-01    8.259453e+03
  8.276972e-01    8.365817e+03
  8.807013e-01    8.440927e+03
  9.337054e-01    8.601709e+03
  9.867095e-01    8.766249e+03
  1.039714e+00    9.025193e+03
  1.092718e+00    9.341355e+03
  1.145722e+00    9.842783e+03
  1.198726e+00    1.045838e+04
  1.251730e+00    1.131016e+04
  1.304734e+00    1.265284e+04
  1.357738e+00    1.373692e+04
  1.410742e+00    1.396297e+04
  1.463746e+00    1.400346e+04
  1.516750e+00    1.386002e+04
  1.569755e+00    1.333779e+04
  1.622759e+00    1.267567e+04
  1.675763e+00    1.181172e+04
  1.728767e+00    1.091162e+04
  1.781771e+00    1.009917e+04
  1.834775e+00    9.419036e+03
  1.887779e+00    8.835374e+03
  1.940783e+00    8.457551e+03
  1.993787e+00    8.158893e+03
  2.046791e+00    8.091017e+03
  2.099796e+00    8.551240e+03
  2.152800e+00    1.018529e+04
  2.205804e+00    1.105655e+04
  2.258808e+00    9.383202e+03
  2.311812e+00    8.093827e+03
  2.364816e+00    7.717962e+03
  2.417820e+00    7.969167e+03
  2.470824e+00    9.465378e+03
  2.523828e+00    1.465916e+04
  2.576832e+00    1.918404e+04
  2.629837e+00    1.422642e+04
  2.682841e+00    9.504183e+03
  2.735845e+00    7.699464e+03
  2.788849e+00    6.486615e+03
  2.841853e+00    5.592163e+03
  2.894857e+00    5.187196e+03
  2.947861e+00    5.099637e+03
  3.000865e+00    5.382432e+03
  3.053869e+00    6.783591e+03
  3.106874e+00    9.224309e+03
  3.159878e+00    9.680576e+03
  3.212882e+00    8.203741e+03
  3.265886e+00    6.008099e+03
  3.318890e+00    4.864038e+03
  3.371894e+00    4.580770e+03
  3.424898e+00    4.488583e+03
  3.477902e+00    4.457183e+03
  3.530906e+00    4.450074e+03
  3.583910e+00    4.459088e+03
  3.636915e+00    4.530084e+03
  3.689919e+00    4.736306e+03
  3.742923e+00    5.273057e+03
  3.795927e+00    5.909991e+03
  3.848931e+00    5.791734e+03
  3.901935e+00    5.720467e+03
  3.954939e+00    6.774041e+03
  4.007943e+00    8.936053e+03
  4.060947e+00    9.243634e+03
  4.113951e+00    7.511777e+03
  4.166956e+00    6.425962e+03
  4.219960e+00    6.049478e+03
  4.272964e+00    6.262628e+03
  4.325968e+00    8.053144e+03
  4.378972e+00    1.221919e+04
  4.431976e+00    1.353648e+04
  4.484980e+00    1.227615e+04
  4.537984e+00    9.474377e+03
  4.590988e+00    6.634662e+03
  4.643992e+00    5.400306e+03
  4.696997e+00    4.994511e+03
  4.750001e+00    4.850245e+03
  4.803005e+00    4.843825e+03
  4.856009e+00    5.009717e+03
  4.909013e+00    5.196227e+03
  4.962017e+00    5.231796e+03
  5.015021e+00    5.480873e+03
  5.068025e+00    6.139584e+03
  5.121029e+00    6.297934e+03
  5.174033e+00    5.619736e+03
  5.227038e+00    4.888047e+03
  5.280042e+00    4.484611e+03
  5.333046e+00    4.389669e+03
  5.386050e+00    4.415349e+03
  5.439054e+00    4.255753e+03
  5.492058e+00    4.196479e+03
  5.545062e+00    3.938655e+03
  5.598066e+00    3.602697e+03
  5.651070e+00    3.468916e+03
  5.704074e+00    3.503291e+03
  5.757079e+00    3.742197e+03
  5.810083e+00    4.012600e+03
  5.863087e+00    4.149963e+03
  5.916091e+00    4.660535e+03
  5.969095e+00    5.070556e+03
  6.022099e+00    4.551089e+03
  6.075103e+00    4.023611e+03
  6.128107e+00    3.897743e+03
  6.181111e+00    4.046488e+03
  6.234115e+00    4.100392e+03
  6.287120e+00    3.936493e+03
  6.340124e+00    3.782377e+03
  6.393128e+00    3.642450e+03
  6.446132e+00    3.473056e+03
  6.499136e+00    3.406766e+03
  6.552140e+00    3.495250e+03
  6.605144e+00    3.631675e+03
  6.658148e+00    3.858302e+03
  6.711152e+00    4.212692e+03
  6.764156e+00    4.150806e+03
  6.817161e+00    3.698729e+03
  6.870165e+00    3.410965e+03
  6.923169e+00    3.377523e+03
  6.976173e+00    3.370320e+03
  7.029177e+00    3.303707e+03
  7.082181e+00    3.285113e+03
  7.135185e+00    3.212588e+03
  7.188189e+00    3.112296e+03
  7.241193e+00    3.082865e+03
  7.294197e+00    3.167505e+03
  7.347202e+00    3.362554e+03
  7.400206e+00    3.552911e+03
  7.453210e+00    3.501133e+03
  7.506214e+00    3.483372e+03
  7.559218e+00    3.799594e+03
  7.612222e+00    4.098719e+03
  7.665226e+00    3.873585e+03
  7.718230e+00    3.737890e+03
  7.771234e+00    3.766000e+03
  7.824239e+00    3.601413e+03
  7.877243e+00    3.443046e+03
  7.930247e+00    3.419496e+03
  7.983251e+00    3.536476e+03
  8.036255e+00    3.618465e+03
  8.089259e+00    3.428965e+03
  8.142263e+00    3.183712e+03
  8.195267e+00    3.050617e+03
  8.248271e+00    2.992854e+03
  8.301275e+00    2.952746e+03
  8.354280e+00    2.915749e+03
  8.407284e+00    2.895674e+03
  8.460288e+00    2.908375e+03
  8.513292e+00    2.925852e+03
  8.566296e+00    2.967166e+03
  8.619300e+00    2.961474e+03
  8.672304e+00    2.923066e+03
  8.725308e+00    2.946095e+03
  8.778312e+00    2.996179e+03
  8.831316e+00    2.952723e+03
  8.884321e+00    2.889377e+03
  8.937325e+00    2.883339e+03
  8.990329e+00    2.896044e+03
  9.043333e+00    2.904822e+03
  9.096337e+00    2.936272e+03
  9.149341e+00    2.979644e+03
  9.202345e+00    2.915307e+03
  9.255349e+00    2.794785e+03
  9.308353e+00    2.723636e+03
  9.361357e+00    2.675435e+03
  9.414362e+00    2.633449e+03
  9.467366e+00    2.655337e+03
  9.520370e+00    2.709702e+03
  9.573374e+00    2.769472e+03
  9.626378e+00    2.821937e+03
  9.679382e+00    2.827805e+03
  9.732386e+00    2.787413e+03
  9.785390e+00    2.785487e+03
  9.838394e+00    2.775812e+03
  9.891398e+00    2.708544e+03
  9.944403e+00    2.663765e+03
  9.997407e+00    2.673643e+03
  1.005041e+01    2.705612e+03
  1.010341e+01    2.737650e+03
  1.015642e+01    2.742956e+03
  1.020942e+01    2.655861e+03
  1.026243e+01    2.551787e+03
  1.031543e+01    2.508331e+03
  1.036844e+01    2.499453e+03
  1.042144e+01    2.488442e+03
  1.047444e+01    2.501941e+03
  1.052745e+01    2.521561e+03
  1.058045e+01    2.542503e+03
  1.063346e+01    2.532259e+03
  1.068646e+01    2.497537e+03
  1.073946e+01    2.476734e+03
  1.079247e+01    2.465396e+03
  1.084547e+01    2.443271e+03
  1.089848e+01    2.455632e+03
  1.095148e+01    2.498970e+03
  1.100448e+01    2.553852e+03
  1.105749e+01    2.571019e+03
  1.111049e+01    2.526750e+03
  1.116350e+01    2.458292e+03
  1.121650e+01    2.420663e+03
  1.126951e+01    2.401858e+03
  1.132251e+01    2.404284e+03
  1.137551e+01    2.428611e+03
  1.142852e+01    2.468261e+03
  1.148152e+01    2.500445e+03
  1.153453e+01    2.519366e+03
  1.158753e+01    2.542931e+03
  1.164053e+01    2.528671e+03
  1.169354e+01    2.470898e+03
  1.174654e+01    2.449721e+03
  1.179955e+01    2.440370e+03
  1.185255e+01    2.456086e+03
  1.190555e+01    2.444438e+03
  1.195856e+01    2.403173e+03
  1.201156e+01    2.353893e+03
  1.206457e+01    2.323328e+03
  1.211757e+01    2.328751e+03
  1.217057e+01    2.348008e+03
  1.222358e+01    2.379461e+03
  1.227658e+01    2.405093e+03
  1.232959e+01    2.390678e+03
  1.238259e+01    2.349487e+03
  1.243560e+01    2.326167e+03
  1.248860e+01    2.310685e+03
  1.254160e+01    2.316903e+03
  1.259461e+01    2.326294e+03
  1.264761e+01    2.327957e+03
  1.270062e+01    2.314248e+03
  1.275362e+01    2.293521e+03
  1.280662e+01    2.275116e+03
  1.285963e+01    2.264923e+03
  1.291263e+01    2.257487e+03
  1.296564e+01    2.257638e+03
  1.301864e+01    2.265055e+03
  1.307164e+01    2.274355e+03
  1.312465e+01    2.279116e+03
  1.317765e+01    2.279998e+03
  1.323066e+01    2.262783e+03
  1.328366e+01    2.262962e+03
  1.333667e+01    2.285228e+03
  1.338967e+01    2.307307e+03
  1.344267e+01    2.315084e+03
  1.349568e+01    2.277294e+03
  1.354868e+01    2.239360e+03
  1.360169e+01    2.219085e+03
  1.365469e+01    2.213605e+03
  1.370769e+01    2.223630e+03
  1.376070e+01    2.222545e+03
  1.381370e+01    2.211543e+03
  1.386671e+01    2.192114e+03
  1.391971e+01    2.172759e+03
  1.397271e+01    2.165479e+03
  1.402572e+01    2.165420e+03
  1.407872e+01    2.167074e+03
  1.413173e+01    2.164286e+03
  1.418473e+01    2.150862e+03
  1.423773e+01    2.133159e+03
  1.429074e+01    2.121555e+03
  1.434374e+01    2.123453e+03
  1.439675e+01    2.122345e+03
  1.444975e+01    2.124731e+03
  1.450276e+01    2.117007e+03
  1.455576e+01    2.107396e+03
  1.460876e+01    2.096919e+03
  1.466177e+01    2.092597e+03
  1.471477e+01    2.093669e+03
  1.476778e+01    2.097664e+03
  1.482078e+01    2.092568e+03
  1.487378e+01    2.078009e+03
  1.492679e+01    2.065690e+03
  1.497979e+01    2.058765e+03
  1.503280e+01    2.061408e+03
  1.508580e+01    2.065073e+03
  1.513880e+01    2.064223e+03
  1.519181e+01    2.072483e+03
  1.524481e+01    2.098945e+03
  1.529782e+01    2.087939e+03
  1.535082e+01    2.089177e+03
  1.540382e+01    2.091620e+03
  1.545683e+01    2.079264e+03
  1.550983e+01    2.073970e+03
  1.556284e+01    2.061951e+03
  1.561584e+01    2.055561e+03
  1.566885e+01    2.057504e+03
  1.572185e+01    2.062743e+03
  1.577485e+01    2.066456e+03
  1.582786e+01    2.060722e+03
  1.588086e+01    2.052303e+03
  1.593387e+01    2.044482e+03
  1.598687e+01    2.037971e+03
  1.603987e+01    2.026684e+03
  1.609288e+01    2.015322e+03
  1.614588e+01    2.003714e+03
  1.619889e+01    2.004029e+03
  1.625189e+01    2.009696e+03
  1.630489e+01    2.006693e+03
  1.635790e+01    2.001993e+03
  1.641090e+01    1.996547e+03
  1.646391e+01    1.994230e+03
  1.651691e+01    2.000643e+03
  1.656992e+01    2.004548e+03
  1.662292e+01    2.003282e+03
  1.667592e+01    2.000532e+03
  1.672893e+01    1.989115e+03
  1.678193e+01    1.988218e+03
  1.683494e+01    1.984136e+03
  1.688794e+01    1.986307e+03
  1.694094e+01    1.986960e+03
  1.699395e+01    1.984966e+03
  1.704695e+01    1.982529e+03
  1.709996e+01    1.983107e+03
  1.715296e+01    1.979500e+03
  1.720596e+01    1.976623e+03
  1.725897e+01    1.965460e+03
  1.731197e+01    1.958387e+03
  1.736498e+01    1.950793e+03
  1.741798e+01    1.948753e+03
  1.747098e+01    1.947685e+03
  1.752399e+01    1.945739e+03
  1.757699e+01    1.940276e+03
  1.763000e+01    1.938620e+03
  1.768300e+01    1.940103e+03
  1.773601e+01    1.940158e+03
  1.778901e+01    1.935405e+03
  1.784201e+01    1.927620e+03
  1.789502e+01    1.927304e+03
  1.794802e+01    1.922963e+03
  1.800103e+01    1.925056e+03
  1.805403e+01    1.918772e+03
  1.810703e+01    1.908694e+03
  1.816004e+01    1.903128e+03
  1.821304e+01    1.898706e+03
  1.826605e+01    1.900561e+03
  1.831905e+01    1.890309e+03
  1.837205e+01    1.886190e+03
  1.842506e+01    1.882288e+03
  1.847806e+01    1.881793e+03
  1.853107e+01    1.880067e+03
  1.858407e+01    1.879519e+03
  1.863708e+01    1.878950e+03
  1.869008e+01    1.896371e+03
  1.874308e+01    1.887116e+03
  1.879609e+01    1.882750e+03
  1.884909e+01    1.878575e+03
  1.890210e+01    1.876245e+03
  1.895510e+01    1.869277e+03
  1.900810e+01    1.870203e+03
  1.906111e+01    1.867135e+03
  1.911411e+01    1.860002e+03
  1.916712e+01    1.858844e+03
  1.922012e+01    1.857287e+03
  1.927312e+01    1.850732e+03
  1.932613e+01    1.847090e+03
  1.937913e+01    1.842632e+03
  1.943214e+01    1.838422e+03
  1.948514e+01    1.836188e+03
  1.953814e+01    1.831470e+03
  1.959115e+01    1.827130e+03
  1.964415e+01    1.822308e+03
  1.969716e+01    1.819534e+03
  1.975016e+01    1.815926e+03
  1.980317e+01    1.813574e+03
  1.985617e+01    1.808438e+03
  1.990917e+01    1.803051e+03
  1.996218e+01    1.799062e+03
  2.001518e+01    1.797435e+03
  2.006819e+01    1.790961e+03
  2.012119e+01    1.785812e+03
  2.017419e+01    1.785369e+03
  2.022720e+01    1.779009e+03
  2.028020e+01    1.771705e+03
  2.033321e+01    1.765006e+03
  2.038621e+01    1.759188e+03
  2.043921e+01    1.753963e+03
  2.049222e+01    1.751748e+03
  2.054522e+01    1.743636e+03
  2.059823e+01    1.740133e+03
  2.065123e+01    1.735991e+03
  2.070424e+01    1.730368e+03
  2.075724e+01    1.728301e+03
  2.081024e+01    1.734497e+03
  2.086325e+01    1.728881e+03
  2.091625e+01    1.714435e+03
  2.096926e+01    1.701899e+03
  2.102226e+01    1.690938e+03
  2.107526e+01    1.680922e+03
  2.112827e+01    1.670332e+03
  2.118127e+01    1.660762e+03
  2.123428e+01    1.649784e+03
  2.128728e+01    1.639350e+03
  2.134028e+01    1.631197e+03
  2.139329e+01    1.617578e+03
  2.144629e+01    1.611871e+03
  2.149930e+01    1.602582e+03
  2.155230e+01    1.595493e+03
  2.160530e+01    1.590851e+03
  2.165831e+01    1.580159e+03
  2.171131e+01    1.572545e+03
  2.176432e+01    1.568526e+03
  2.181732e+01    1.558875e+03
  2.187033e+01    1.549816e+03
  2.192333e+01    1.542235e+03
  2.197633e+01    1.534042e+03
  2.202934e+01    1.525944e+03
  2.208234e+01    1.515366e+03
  2.213535e+01    1.507561e+03
  2.218835e+01    1.495981e+03
  2.224135e+01    1.487834e+03
  2.229436e+01    1.479429e+03
  2.234736e+01    1.472492e+03
  2.240037e+01    1.462708e+03
  2.245337e+01    1.454323e+03
  2.250637e+01    1.448681e+03
  2.255938e+01    1.438675e+03
  2.261238e+01    1.440758e+03
  2.266539e+01    1.440361e+03
  2.271839e+01    1.441502e+03
  2.277140e+01    1.440235e+03
  2.282440e+01    1.442007e+03
  2.287740e+01    1.436831e+03
  2.293041e+01    1.437901e+03
  2.298341e+01    1.435712e+03
  2.303642e+01    1.434103e+03
  2.308942e+01    1.432528e+03
  2.314242e+01    1.428208e+03
  2.319543e+01    1.425656e+03
  2.324843e+01    1.419166e+03
  2.330144e+01    1.418730e+03
  2.335444e+01    1.416671e+03
  2.340744e+01    1.414734e+03
  2.346045e+01    1.415195e+03
  2.351345e+01    1.410799e+03
  2.356646e+01    1.406082e+03
  2.361946e+01    1.406612e+03
  2.367246e+01    1.404410e+03
  2.372547e+01    1.398493e+03
  2.377847e+01    1.398085e+03
  2.383148e+01    1.390952e+03
  2.388448e+01    1.390117e+03
  2.393749e+01    1.386861e+03
  2.399049e+01    1.386104e+03
  2.404349e+01    1.385670e+03
  2.409650e+01    1.382582e+03
  2.414950e+01    1.378270e+03
  2.420251e+01    1.373686e+03
  2.425551e+01    1.370408e+03
  2.430851e+01    1.365042e+03
  2.436152e+01    1.363447e+03
  2.441452e+01    1.356455e+03
  2.446753e+01    1.353794e+03
  2.452053e+01    1.347136e+03
  2.457353e+01    1.343875e+03
  2.462654e+01    1.340709e+03
  2.467954e+01    1.331462e+03
  2.473255e+01    1.324016e+03
  2.478555e+01    1.314745e+03
  2.483855e+01    1.301069e+03
  2.489156e+01    1.292296e+03
  2.494456e+01    1.284745e+03
  2.499757e+01    1.273535e+03
  2.505057e+01    1.267565e+03
  2.510358e+01    1.257552e+03
  2.515658e+01    1.249098e+03
  2.520958e+01    1.245766e+03
  2.526259e+01    1.233352e+03
  2.531559e+01    1.229396e+03
  2.536860e+01    1.222305e+03
  2.542160e+01    1.213521e+03
  2.547460e+01    1.203786e+03
  2.552761e+01    1.192005e+03
  2.558061e+01    1.191815e+03
  2.563362e+01    1.187583e+03
  2.568662e+01    1.173088e+03
  2.573962e+01    1.168054e+03
  2.579263e+01    1.160466e+03
  2.584563e+01    1.151974e+03
  2.589864e+01    1.144565e+03
  2.595164e+01    1.142250e+03
  2.600465e+01    1.143397e+03
  2.605765e+01    1.133791e+03
  2.611065e+01    1.127250e+03
  2.616366e+01    1.128321e+03
  2.621666e+01    1.123506e+03
  2.626967e+01    1.111750e+03
  2.632267e+01    1.114258e+03
  2.637567e+01    1.111500e+03
  2.642868e+01    1.079392e+03
  2.648168e+01    1.070133e+03
