# == pyFAI calibration ==
# Distance Sample to Detector: 0.2945755399789714 m
# PONI: 2.880e-01, 2.450e-01 m
# Rotations: -0.007291 -0.010887 -0.000000 rad
# 
# == Fit2d calibration ==
# Distance Sample-beamCenter: 294.601 mm
# Center: x=1437.174, y=1655.617 pix
# Tilt: 0.751 deg  TiltPlanRot: -56.193 deg
# 
# Detector Pilatus CdTe 2M	 PixelSize= 1.720e-04, 1.720e-04 m
#    Detector has a mask: True 
#    Detector has a dark current: False 
#    detector has a flat field: False 
# 
# Wavelength: 2.0732883349524408e-11 m
# Mask applied: from detector
# Dark current applied: False
# Flat field applied: False
# Polarization factor: 0.9
# Normalization factor: 1.0
# --> /gpfs/current/raw/FMue_2/FMue_2_20231024_120911_00358.dat
#        q_A^-1             I 
  3.263564e-02             nan
  8.563974e-02             nan
  1.386438e-01             nan
  1.916479e-01             nan
  2.446520e-01    3.847882e+04
  2.976561e-01    2.979816e+04
  3.506602e-01    1.593696e+04
  4.036643e-01    1.116314e+04
  4.566684e-01    9.505559e+03
  5.096725e-01    9.046796e+03
  5.626766e-01    8.722884e+03
  6.156807e-01    8.376870e+03
  6.686848e-01    8.218378e+03
  7.216890e-01    8.256729e+03
  7.746931e-01    8.261173e+03
  8.276972e-01    8.340129e+03
  8.807013e-01    8.408566e+03
  9.337054e-01    8.549575e+03
  9.867095e-01    8.711918e+03
  1.039714e+00    8.960620e+03
  1.092718e+00    9.283049e+03
  1.145722e+00    9.775340e+03
  1.198726e+00    1.036983e+04
  1.251730e+00    1.106738e+04
  1.304734e+00    1.197041e+04
  1.357738e+00    1.284556e+04
  1.410742e+00    1.353494e+04
  1.463746e+00    1.386764e+04
  1.516750e+00    1.381677e+04
  1.569755e+00    1.333471e+04
  1.622759e+00    1.266224e+04
  1.675763e+00    1.179321e+04
  1.728767e+00    1.089190e+04
  1.781771e+00    1.008440e+04
  1.834775e+00    9.417456e+03
  1.887779e+00    8.837003e+03
  1.940783e+00    8.452497e+03
  1.993787e+00    8.133689e+03
  2.046791e+00    7.934591e+03
  2.099796e+00    7.865072e+03
  2.152800e+00    7.860254e+03
  2.205804e+00    7.889174e+03
  2.258808e+00    7.886781e+03
  2.311812e+00    7.835502e+03
  2.364816e+00    7.838463e+03
  2.417820e+00    8.086292e+03
  2.470824e+00    8.659127e+03
  2.523828e+00    9.600515e+03
  2.576832e+00    1.027028e+04
  2.629837e+00    9.357340e+03
  2.682841e+00    8.050827e+03
  2.735845e+00    7.517454e+03
  2.788849e+00    6.891188e+03
  2.841853e+00    6.588118e+03
  2.894857e+00    7.118620e+03
  2.947861e+00    8.828345e+03
  3.000865e+00    1.183364e+04
  3.053869e+00    1.354752e+04
  3.106874e+00    1.160809e+04
  3.159878e+00    1.004347e+04
  3.212882e+00    8.568676e+03
  3.265886e+00    6.566289e+03
  3.318890e+00    5.683159e+03
  3.371894e+00    5.570288e+03
  3.424898e+00    5.849806e+03
  3.477902e+00    6.487452e+03
  3.530906e+00    6.502288e+03
  3.583910e+00    5.670961e+03
  3.636915e+00    5.097889e+03
  3.689919e+00    4.928585e+03
  3.742923e+00    4.922542e+03
  3.795927e+00    4.987208e+03
  3.848931e+00    5.084193e+03
  3.901935e+00    5.247583e+03
  3.954939e+00    5.472397e+03
  4.007943e+00    5.775698e+03
  4.060947e+00    6.143380e+03
  4.113951e+00    6.556282e+03
  4.166956e+00    7.141043e+03
  4.219960e+00    7.781840e+03
  4.272964e+00    7.460127e+03
  4.325968e+00    6.917559e+03
  4.378972e+00    7.445519e+03
  4.431976e+00    9.535812e+03
  4.484980e+00    1.057165e+04
  4.537984e+00    8.358928e+03
  4.590988e+00    6.294355e+03
  4.643992e+00    5.553395e+03
  4.696997e+00    5.361369e+03
  4.750001e+00    5.314636e+03
  4.803005e+00    5.367511e+03
  4.856009e+00    5.577157e+03
  4.909013e+00    6.099417e+03
  4.962017e+00    6.793830e+03
  5.015021e+00    6.626095e+03
  5.068025e+00    5.928624e+03
  5.121029e+00    5.605656e+03
  5.174033e+00    5.411799e+03
  5.227038e+00    5.068177e+03
  5.280042e+00    4.715609e+03
  5.333046e+00    4.468668e+03
  5.386050e+00    4.324647e+03
  5.439054e+00    4.330808e+03
  5.492058e+00    4.290610e+03
  5.545062e+00    4.007181e+03
  5.598066e+00    3.799014e+03
  5.651070e+00    3.753920e+03
  5.704074e+00    3.831363e+03
  5.757079e+00    4.137953e+03
  5.810083e+00    4.704065e+03
  5.863087e+00    4.783707e+03
  5.916091e+00    4.339659e+03
  5.969095e+00    4.156554e+03
  6.022099e+00    4.158387e+03
  6.075103e+00    4.237838e+03
  6.128107e+00    4.128637e+03
  6.181111e+00    3.898371e+03
  6.234115e+00    3.857643e+03
  6.287120e+00    3.924590e+03
  6.340124e+00    3.909891e+03
  6.393128e+00    3.836406e+03
  6.446132e+00    3.736946e+03
  6.499136e+00    3.687635e+03
  6.552140e+00    3.650766e+03
  6.605144e+00    3.646950e+03
  6.658148e+00    3.651682e+03
  6.711152e+00    3.584728e+03
  6.764156e+00    3.495120e+03
  6.817161e+00    3.402664e+03
  6.870165e+00    3.319784e+03
  6.923169e+00    3.268801e+03
  6.976173e+00    3.314332e+03
  7.029177e+00    3.383771e+03
  7.082181e+00    3.407667e+03
  7.135185e+00    3.340732e+03
  7.188189e+00    3.276258e+03
  7.241193e+00    3.267090e+03
  7.294197e+00    3.307480e+03
  7.347202e+00    3.307787e+03
  7.400206e+00    3.288755e+03
  7.453210e+00    3.283611e+03
  7.506214e+00    3.310673e+03
  7.559218e+00    3.364751e+03
  7.612222e+00    3.500659e+03
  7.665226e+00    3.719555e+03
  7.718230e+00    3.899503e+03
  7.771234e+00    3.842885e+03
  7.824239e+00    3.659408e+03
  7.877243e+00    3.512079e+03
  7.930247e+00    3.315769e+03
  7.983251e+00    3.181482e+03
  8.036255e+00    3.128398e+03
  8.089259e+00    3.107830e+03
  8.142263e+00    3.104544e+03
  8.195267e+00    3.095348e+03
  8.248271e+00    3.080865e+03
  8.301275e+00    3.061047e+03
  8.354280e+00    3.041332e+03
  8.407284e+00    3.037453e+03
  8.460288e+00    3.033421e+03
  8.513292e+00    3.032043e+03
  8.566296e+00    3.069723e+03
  8.619300e+00    3.092312e+03
  8.672304e+00    3.062212e+03
  8.725308e+00    3.020018e+03
  8.778312e+00    2.991682e+03
  8.831316e+00    2.981093e+03
  8.884321e+00    2.986497e+03
  8.937325e+00    2.981098e+03
  8.990329e+00    2.943692e+03
  9.043333e+00    2.893000e+03
  9.096337e+00    2.876658e+03
  9.149341e+00    2.865099e+03
  9.202345e+00    2.811174e+03
  9.255349e+00    2.756160e+03
  9.308353e+00    2.723347e+03
  9.361357e+00    2.707355e+03
  9.414362e+00    2.690746e+03
  9.467366e+00    2.691838e+03
  9.520370e+00    2.670840e+03
  9.573374e+00    2.644103e+03
  9.626378e+00    2.629694e+03
  9.679382e+00    2.627209e+03
  9.732386e+00    2.623912e+03
  9.785390e+00    2.618449e+03
  9.838394e+00    2.620407e+03
  9.891398e+00    2.628874e+03
  9.944403e+00    2.633381e+03
  9.997407e+00    2.616415e+03
  1.005041e+01    2.586779e+03
  1.010341e+01    2.547563e+03
  1.015642e+01    2.525578e+03
  1.020942e+01    2.516773e+03
  1.026243e+01    2.515009e+03
  1.031543e+01    2.539174e+03
  1.036844e+01    2.593175e+03
  1.042144e+01    2.610764e+03
  1.047444e+01    2.603801e+03
  1.052745e+01    2.583410e+03
  1.058045e+01    2.567220e+03
  1.063346e+01    2.538167e+03
  1.068646e+01    2.514951e+03
  1.073946e+01    2.491446e+03
  1.079247e+01    2.478794e+03
  1.084547e+01    2.465909e+03
  1.089848e+01    2.466867e+03
  1.095148e+01    2.462473e+03
  1.100448e+01    2.456661e+03
  1.105749e+01    2.451961e+03
  1.111049e+01    2.452652e+03
  1.116350e+01    2.438736e+03
  1.121650e+01    2.427714e+03
  1.126951e+01    2.413257e+03
  1.132251e+01    2.406021e+03
  1.137551e+01    2.398410e+03
  1.142852e+01    2.395962e+03
  1.148152e+01    2.394266e+03
  1.153453e+01    2.393603e+03
  1.158753e+01    2.393154e+03
  1.164053e+01    2.384830e+03
  1.169354e+01    2.384503e+03
  1.174654e+01    2.404718e+03
  1.179955e+01    2.392702e+03
  1.185255e+01    2.383531e+03
  1.190555e+01    2.365864e+03
  1.195856e+01    2.352987e+03
  1.201156e+01    2.341843e+03
  1.206457e+01    2.334229e+03
  1.211757e+01    2.336471e+03
  1.217057e+01    2.338182e+03
  1.222358e+01    2.336499e+03
  1.227658e+01    2.332279e+03
  1.232959e+01    2.334520e+03
  1.238259e+01    2.327864e+03
  1.243560e+01    2.332241e+03
  1.248860e+01    2.331787e+03
  1.254160e+01    2.337988e+03
  1.259461e+01    2.336048e+03
  1.264761e+01    2.326897e+03
  1.270062e+01    2.311796e+03
  1.275362e+01    2.298136e+03
  1.280662e+01    2.289537e+03
  1.285963e+01    2.281209e+03
  1.291263e+01    2.271107e+03
  1.296564e+01    2.260933e+03
  1.301864e+01    2.256509e+03
  1.307164e+01    2.251006e+03
  1.312465e+01    2.245341e+03
  1.317765e+01    2.240396e+03
  1.323066e+01    2.219840e+03
  1.328366e+01    2.209834e+03
  1.333667e+01    2.202419e+03
  1.338967e+01    2.198154e+03
  1.344267e+01    2.211829e+03
  1.349568e+01    2.208973e+03
  1.354868e+01    2.201638e+03
  1.360169e+01    2.187961e+03
  1.365469e+01    2.171138e+03
  1.370769e+01    2.163019e+03
  1.376070e+01    2.150026e+03
  1.381370e+01    2.143730e+03
  1.386671e+01    2.135343e+03
  1.391971e+01    2.126910e+03
  1.397271e+01    2.124205e+03
  1.402572e+01    2.120782e+03
  1.407872e+01    2.114539e+03
  1.413173e+01    2.106775e+03
  1.418473e+01    2.103070e+03
  1.423773e+01    2.099478e+03
  1.429074e+01    2.092048e+03
  1.434374e+01    2.093674e+03
  1.439675e+01    2.085060e+03
  1.444975e+01    2.085022e+03
  1.450276e+01    2.078744e+03
  1.455576e+01    2.071778e+03
  1.460876e+01    2.068991e+03
  1.466177e+01    2.065355e+03
  1.471477e+01    2.064297e+03
  1.476778e+01    2.064532e+03
  1.482078e+01    2.063435e+03
  1.487378e+01    2.058996e+03
  1.492679e+01    2.056858e+03
  1.497979e+01    2.051075e+03
  1.503280e+01    2.050275e+03
  1.508580e+01    2.046261e+03
  1.513880e+01    2.044296e+03
  1.519181e+01    2.052237e+03
  1.524481e+01    2.076061e+03
  1.529782e+01    2.056869e+03
  1.535082e+01    2.046928e+03
  1.540382e+01    2.041237e+03
  1.545683e+01    2.031072e+03
  1.550983e+01    2.034208e+03
  1.556284e+01    2.032123e+03
  1.561584e+01    2.026174e+03
  1.566885e+01    2.020222e+03
  1.572185e+01    2.019300e+03
  1.577485e+01    2.016222e+03
  1.582786e+01    2.012507e+03
  1.588086e+01    2.009451e+03
  1.593387e+01    2.008593e+03
  1.598687e+01    2.004316e+03
  1.603987e+01    1.996604e+03
  1.609288e+01    1.988747e+03
  1.614588e+01    1.980453e+03
  1.619889e+01    1.985296e+03
  1.625189e+01    1.984030e+03
  1.630489e+01    1.981952e+03
  1.635790e+01    1.978902e+03
  1.641090e+01    1.975367e+03
  1.646391e+01    1.968635e+03
  1.651691e+01    1.968028e+03
  1.656992e+01    1.961784e+03
  1.662292e+01    1.955453e+03
  1.667592e+01    1.955845e+03
  1.672893e+01    1.951951e+03
  1.678193e+01    1.951302e+03
  1.683494e+01    1.946583e+03
  1.688794e+01    1.944742e+03
  1.694094e+01    1.942197e+03
  1.699395e+01    1.938446e+03
  1.704695e+01    1.934650e+03
  1.709996e+01    1.932488e+03
  1.715296e+01    1.925762e+03
  1.720596e+01    1.922649e+03
  1.725897e+01    1.920940e+03
  1.731197e+01    1.917844e+03
  1.736498e+01    1.911052e+03
  1.741798e+01    1.911746e+03
  1.747098e+01    1.911160e+03
  1.752399e+01    1.908692e+03
  1.757699e+01    1.903023e+03
  1.763000e+01    1.898243e+03
  1.768300e+01    1.893403e+03
  1.773601e+01    1.891025e+03
  1.778901e+01    1.885325e+03
  1.784201e+01    1.878868e+03
  1.789502e+01    1.878603e+03
  1.794802e+01    1.871220e+03
  1.800103e+01    1.870388e+03
  1.805403e+01    1.866645e+03
  1.810703e+01    1.859768e+03
  1.816004e+01    1.856062e+03
  1.821304e+01    1.854564e+03
  1.826605e+01    1.856905e+03
  1.831905e+01    1.847363e+03
  1.837205e+01    1.844668e+03
  1.842506e+01    1.841432e+03
  1.847806e+01    1.839859e+03
  1.853107e+01    1.837930e+03
  1.858407e+01    1.837546e+03
  1.863708e+01    1.837442e+03
  1.869008e+01    1.849965e+03
  1.874308e+01    1.841012e+03
  1.879609e+01    1.834975e+03
  1.884909e+01    1.829958e+03
  1.890210e+01    1.825948e+03
  1.895510e+01    1.818461e+03
  1.900810e+01    1.815046e+03
  1.906111e+01    1.808735e+03
  1.911411e+01    1.803041e+03
  1.916712e+01    1.798346e+03
  1.922012e+01    1.794891e+03
  1.927312e+01    1.787652e+03
  1.932613e+01    1.785878e+03
  1.937913e+01    1.779018e+03
  1.943214e+01    1.775499e+03
  1.948514e+01    1.770253e+03
  1.953814e+01    1.763905e+03
  1.959115e+01    1.760030e+03
  1.964415e+01    1.755100e+03
  1.969716e+01    1.751146e+03
  1.975016e+01    1.747284e+03
  1.980317e+01    1.742677e+03
  1.985617e+01    1.738377e+03
  1.990917e+01    1.731798e+03
  1.996218e+01    1.725917e+03
  2.001518e+01    1.724200e+03
  2.006819e+01    1.715876e+03
  2.012119e+01    1.709646e+03
  2.017419e+01    1.705393e+03
  2.022720e+01    1.699310e+03
  2.028020e+01    1.692685e+03
  2.033321e+01    1.686422e+03
  2.038621e+01    1.681081e+03
  2.043921e+01    1.678011e+03
  2.049222e+01    1.672907e+03
  2.054522e+01    1.666234e+03
  2.059823e+01    1.662399e+03
  2.065123e+01    1.657753e+03
  2.070424e+01    1.653380e+03
  2.075724e+01    1.653788e+03
  2.081024e+01    1.659757e+03
  2.086325e+01    1.650127e+03
  2.091625e+01    1.632474e+03
  2.096926e+01    1.618621e+03
  2.102226e+01    1.608114e+03
  2.107526e+01    1.598521e+03
  2.112827e+01    1.587080e+03
  2.118127e+01    1.580005e+03
  2.123428e+01    1.570078e+03
  2.128728e+01    1.562871e+03
  2.134028e+01    1.552238e+03
  2.139329e+01    1.542937e+03
  2.144629e+01    1.534653e+03
  2.149930e+01    1.524364e+03
  2.155230e+01    1.516313e+03
  2.160530e+01    1.509033e+03
  2.165831e+01    1.498584e+03
  2.171131e+01    1.493296e+03
  2.176432e+01    1.487556e+03
  2.181732e+01    1.478377e+03
  2.187033e+01    1.466916e+03
  2.192333e+01    1.462154e+03
  2.197633e+01    1.452638e+03
  2.202934e+01    1.445001e+03
  2.208234e+01    1.433999e+03
  2.213535e+01    1.426487e+03
  2.218835e+01    1.417106e+03
  2.224135e+01    1.409771e+03
  2.229436e+01    1.401237e+03
  2.234736e+01    1.393728e+03
  2.240037e+01    1.384376e+03
  2.245337e+01    1.377863e+03
  2.250637e+01    1.369251e+03
  2.255938e+01    1.361289e+03
  2.261238e+01    1.365389e+03
  2.266539e+01    1.366490e+03
  2.271839e+01    1.368896e+03
  2.277140e+01    1.366328e+03
  2.282440e+01    1.366045e+03
  2.287740e+01    1.361857e+03
  2.293041e+01    1.364537e+03
  2.298341e+01    1.361163e+03
  2.303642e+01    1.361840e+03
  2.308942e+01    1.358853e+03
  2.314242e+01    1.358666e+03
  2.319543e+01    1.353954e+03
  2.324843e+01    1.349615e+03
  2.330144e+01    1.347724e+03
  2.335444e+01    1.344498e+03
  2.340744e+01    1.344060e+03
  2.346045e+01    1.342704e+03
  2.351345e+01    1.340363e+03
  2.356646e+01    1.334911e+03
  2.361946e+01    1.333610e+03
  2.367246e+01    1.335301e+03
  2.372547e+01    1.331340e+03
  2.377847e+01    1.326031e+03
  2.383148e+01    1.319291e+03
  2.388448e+01    1.316131e+03
  2.393749e+01    1.313760e+03
  2.399049e+01    1.310450e+03
  2.404349e+01    1.307179e+03
  2.409650e+01    1.302723e+03
  2.414950e+01    1.296471e+03
  2.420251e+01    1.289417e+03
  2.425551e+01    1.285885e+03
  2.430851e+01    1.279756e+03
  2.436152e+01    1.272255e+03
  2.441452e+01    1.265299e+03
  2.446753e+01    1.263238e+03
  2.452053e+01    1.252980e+03
  2.457353e+01    1.250914e+03
  2.462654e+01    1.247499e+03
  2.467954e+01    1.235354e+03
  2.473255e+01    1.228568e+03
  2.478555e+01    1.218198e+03
  2.483855e+01    1.208164e+03
  2.489156e+01    1.200550e+03
  2.494456e+01    1.192006e+03
  2.499757e+01    1.183403e+03
  2.505057e+01    1.174077e+03
  2.510358e+01    1.169020e+03
  2.515658e+01    1.162516e+03
  2.520958e+01    1.158917e+03
  2.526259e+01    1.149434e+03
  2.531559e+01    1.146927e+03
  2.536860e+01    1.141418e+03
  2.542160e+01    1.135855e+03
  2.547460e+01    1.130261e+03
  2.552761e+01    1.119789e+03
  2.558061e+01    1.118562e+03
  2.563362e+01    1.115724e+03
  2.568662e+01    1.103940e+03
  2.573962e+01    1.099495e+03
  2.579263e+01    1.090434e+03
  2.584563e+01    1.080631e+03
  2.589864e+01    1.077844e+03
  2.595164e+01    1.074396e+03
  2.600465e+01    1.070051e+03
  2.605765e+01    1.074329e+03
  2.611065e+01    1.068431e+03
  2.616366e+01    1.066057e+03
  2.621666e+01    1.058731e+03
  2.626967e+01    1.050225e+03
  2.632267e+01    1.045198e+03
  2.637567e+01    1.039115e+03
  2.642868e+01    1.013738e+03
  2.648168e+01    1.010567e+03
