# == pyFAI calibration ==
# Distance Sample to Detector: 0.2945755399789714 m
# PONI: 2.880e-01, 2.450e-01 m
# Rotations: -0.007291 -0.010887 -0.000000 rad
# 
# == Fit2d calibration ==
# Distance Sample-beamCenter: 294.601 mm
# Center: x=1437.174, y=1655.617 pix
# Tilt: 0.751 deg  TiltPlanRot: -56.193 deg
# 
# Detector Pilatus CdTe 2M	 PixelSize= 1.720e-04, 1.720e-04 m
#    Detector has a mask: True 
#    Detector has a dark current: False 
#    detector has a flat field: False 
# 
# Wavelength: 2.0732883349524408e-11 m
# Mask applied: from detector
# Dark current applied: False
# Flat field applied: False
# Polarization factor: 0.9
# Normalization factor: 1.0
# --> /gpfs/current/raw/FMue_2/FMue_2_20231024_120911_00242.dat
#        q_A^-1             I 
  3.263564e-02             nan
  8.563974e-02             nan
  1.386438e-01             nan
  1.916479e-01             nan
  2.446520e-01    3.880734e+04
  2.976561e-01    2.993195e+04
  3.506602e-01    1.596165e+04
  4.036643e-01    1.117147e+04
  4.566684e-01    9.521332e+03
  5.096725e-01    9.072893e+03
  5.626766e-01    8.754465e+03
  6.156807e-01    8.392781e+03
  6.686848e-01    8.220944e+03
  7.216890e-01    8.256174e+03
  7.746931e-01    8.251336e+03
  8.276972e-01    8.333158e+03
  8.807013e-01    8.388979e+03
  9.337054e-01    8.543618e+03
  9.867095e-01    8.699987e+03
  1.039714e+00    8.948444e+03
  1.092718e+00    9.275972e+03
  1.145722e+00    9.761079e+03
  1.198726e+00    1.033307e+04
  1.251730e+00    1.103606e+04
  1.304734e+00    1.193799e+04
  1.357738e+00    1.279796e+04
  1.410742e+00    1.348614e+04
  1.463746e+00    1.382697e+04
  1.516750e+00    1.377315e+04
  1.569755e+00    1.329950e+04
  1.622759e+00    1.264958e+04
  1.675763e+00    1.178597e+04
  1.728767e+00    1.089255e+04
  1.781771e+00    1.010076e+04
  1.834775e+00    9.446462e+03
  1.887779e+00    8.872899e+03
  1.940783e+00    8.517550e+03
  1.993787e+00    8.211180e+03
  2.046791e+00    8.037047e+03
  2.099796e+00    7.981788e+03
  2.152800e+00    7.984437e+03
  2.205804e+00    8.063521e+03
  2.258808e+00    8.120583e+03
  2.311812e+00    8.141299e+03
  2.364816e+00    8.228600e+03
  2.417820e+00    8.562053e+03
  2.470824e+00    9.270784e+03
  2.523828e+00    1.064012e+04
  2.576832e+00    1.195607e+04
  2.629837e+00    1.025395e+04
  2.682841e+00    8.285543e+03
  2.735845e+00    7.679520e+03
  2.788849e+00    7.066994e+03
  2.841853e+00    6.800467e+03
  2.894857e+00    7.706475e+03
  2.947861e+00    1.052927e+04
  3.000865e+00    1.216574e+04
  3.053869e+00    1.038342e+04
  3.106874e+00    9.044604e+03
  3.159878e+00    9.017521e+03
  3.212882e+00    7.995498e+03
  3.265886e+00    6.127293e+03
  3.318890e+00    5.273309e+03
  3.371894e+00    5.090809e+03
  3.424898e+00    5.124579e+03
  3.477902e+00    5.270730e+03
  3.530906e+00    5.226675e+03
  3.583910e+00    4.976982e+03
  3.636915e+00    4.829167e+03
  3.689919e+00    4.804783e+03
  3.742923e+00    4.856068e+03
  3.795927e+00    4.955235e+03
  3.848931e+00    5.084604e+03
  3.901935e+00    5.270388e+03
  3.954939e+00    5.499286e+03
  4.007943e+00    5.846455e+03
  4.060947e+00    6.323355e+03
  4.113951e+00    7.040600e+03
  4.166956e+00    8.463744e+03
  4.219960e+00    9.860902e+03
  4.272964e+00    8.515682e+03
  4.325968e+00    7.048009e+03
  4.378972e+00    7.374216e+03
  4.431976e+00    9.447609e+03
  4.484980e+00    1.051091e+04
  4.537984e+00    8.370172e+03
  4.590988e+00    6.351839e+03
  4.643992e+00    5.632394e+03
  4.696997e+00    5.450338e+03
  4.750001e+00    5.422757e+03
  4.803005e+00    5.498954e+03
  4.856009e+00    5.780710e+03
  4.909013e+00    6.317554e+03
  4.962017e+00    6.584009e+03
  5.015021e+00    6.134862e+03
  5.068025e+00    5.748086e+03
  5.121029e+00    5.768350e+03
  5.174033e+00    5.714263e+03
  5.227038e+00    5.176034e+03
  5.280042e+00    4.678254e+03
  5.333046e+00    4.399109e+03
  5.386050e+00    4.250261e+03
  5.439054e+00    4.248156e+03
  5.492058e+00    4.204711e+03
  5.545062e+00    3.916059e+03
  5.598066e+00    3.699776e+03
  5.651070e+00    3.624510e+03
  5.704074e+00    3.636418e+03
  5.757079e+00    3.741626e+03
  5.810083e+00    3.917480e+03
  5.863087e+00    3.992166e+03
  5.916091e+00    4.013606e+03
  5.969095e+00    4.077154e+03
  6.022099e+00    4.045013e+03
  6.075103e+00    3.987764e+03
  6.128107e+00    3.902155e+03
  6.181111e+00    3.823706e+03
  6.234115e+00    3.865612e+03
  6.287120e+00    3.974638e+03
  6.340124e+00    4.000299e+03
  6.393128e+00    3.984288e+03
  6.446132e+00    3.962666e+03
  6.499136e+00    3.958757e+03
  6.552140e+00    3.894144e+03
  6.605144e+00    3.910659e+03
  6.658148e+00    3.958935e+03
  6.711152e+00    3.802774e+03
  6.764156e+00    3.587430e+03
  6.817161e+00    3.444400e+03
  6.870165e+00    3.344281e+03
  6.923169e+00    3.281764e+03
  6.976173e+00    3.315872e+03
  7.029177e+00    3.379100e+03
  7.082181e+00    3.412519e+03
  7.135185e+00    3.385935e+03
  7.188189e+00    3.370504e+03
  7.241193e+00    3.432281e+03
  7.294197e+00    3.520562e+03
  7.347202e+00    3.451872e+03
  7.400206e+00    3.334770e+03
  7.453210e+00    3.279061e+03
  7.506214e+00    3.278926e+03
  7.559218e+00    3.301181e+03
  7.612222e+00    3.374592e+03
  7.665226e+00    3.538611e+03
  7.718230e+00    3.743460e+03
  7.771234e+00    3.712549e+03
  7.824239e+00    3.473555e+03
  7.877243e+00    3.285003e+03
  7.930247e+00    3.153037e+03
  7.983251e+00    3.091749e+03
  8.036255e+00    3.069703e+03
  8.089259e+00    3.066420e+03
  8.142263e+00    3.071371e+03
  8.195267e+00    3.075484e+03
  8.248271e+00    3.073753e+03
  8.301275e+00    3.063257e+03
  8.354280e+00    3.059143e+03
  8.407284e+00    3.063502e+03
  8.460288e+00    3.056213e+03
  8.513292e+00    3.028662e+03
  8.566296e+00    3.033087e+03
  8.619300e+00    3.034183e+03
  8.672304e+00    3.030677e+03
  8.725308e+00    3.037947e+03
  8.778312e+00    3.041106e+03
  8.831316e+00    3.041427e+03
  8.884321e+00    3.041541e+03
  8.937325e+00    3.025463e+03
  8.990329e+00    2.959727e+03
  9.043333e+00    2.874532e+03
  9.096337e+00    2.818248e+03
  9.149341e+00    2.789037e+03
  9.202345e+00    2.763356e+03
  9.255349e+00    2.743754e+03
  9.308353e+00    2.733381e+03
  9.361357e+00    2.733794e+03
  9.414362e+00    2.729971e+03
  9.467366e+00    2.721269e+03
  9.520370e+00    2.691950e+03
  9.573374e+00    2.661517e+03
  9.626378e+00    2.650073e+03
  9.679382e+00    2.644248e+03
  9.732386e+00    2.649267e+03
  9.785390e+00    2.645600e+03
  9.838394e+00    2.640173e+03
  9.891398e+00    2.636751e+03
  9.944403e+00    2.621764e+03
  9.997407e+00    2.603550e+03
  1.005041e+01    2.575877e+03
  1.010341e+01    2.535952e+03
  1.015642e+01    2.515058e+03
  1.020942e+01    2.503835e+03
  1.026243e+01    2.501448e+03
  1.031543e+01    2.512374e+03
  1.036844e+01    2.539641e+03
  1.042144e+01    2.543633e+03
  1.047444e+01    2.544874e+03
  1.052745e+01    2.538610e+03
  1.058045e+01    2.532364e+03
  1.063346e+01    2.523764e+03
  1.068646e+01    2.508803e+03
  1.073946e+01    2.491848e+03
  1.079247e+01    2.477551e+03
  1.084547e+01    2.466431e+03
  1.089848e+01    2.464398e+03
  1.095148e+01    2.465067e+03
  1.100448e+01    2.459628e+03
  1.105749e+01    2.455547e+03
  1.111049e+01    2.456380e+03
  1.116350e+01    2.443167e+03
  1.121650e+01    2.432159e+03
  1.126951e+01    2.417385e+03
  1.132251e+01    2.407187e+03
  1.137551e+01    2.396320e+03
  1.142852e+01    2.390017e+03
  1.148152e+01    2.381868e+03
  1.153453e+01    2.373499e+03
  1.158753e+01    2.367589e+03
  1.164053e+01    2.363070e+03
  1.169354e+01    2.367932e+03
  1.174654e+01    2.392738e+03
  1.179955e+01    2.387161e+03
  1.185255e+01    2.378578e+03
  1.190555e+01    2.363865e+03
  1.195856e+01    2.355446e+03
  1.201156e+01    2.345509e+03
  1.206457e+01    2.337011e+03
  1.211757e+01    2.342224e+03
  1.217057e+01    2.341956e+03
  1.222358e+01    2.339370e+03
  1.227658e+01    2.337052e+03
  1.232959e+01    2.335200e+03
  1.238259e+01    2.327463e+03
  1.243560e+01    2.329747e+03
  1.248860e+01    2.325203e+03
  1.254160e+01    2.328841e+03
  1.259461e+01    2.325646e+03
  1.264761e+01    2.319876e+03
  1.270062e+01    2.307210e+03
  1.275362e+01    2.296501e+03
  1.280662e+01    2.289176e+03
  1.285963e+01    2.280496e+03
  1.291263e+01    2.268430e+03
  1.296564e+01    2.257510e+03
  1.301864e+01    2.250363e+03
  1.307164e+01    2.241819e+03
  1.312465e+01    2.233565e+03
  1.317765e+01    2.226454e+03
  1.323066e+01    2.207127e+03
  1.328366e+01    2.201591e+03
  1.333667e+01    2.196500e+03
  1.338967e+01    2.191430e+03
  1.344267e+01    2.203192e+03
  1.349568e+01    2.196714e+03
  1.354868e+01    2.190404e+03
  1.360169e+01    2.180458e+03
  1.365469e+01    2.166657e+03
  1.370769e+01    2.156731e+03
  1.376070e+01    2.146807e+03
  1.381370e+01    2.139858e+03
  1.386671e+01    2.132343e+03
  1.391971e+01    2.124344e+03
  1.397271e+01    2.121054e+03
  1.402572e+01    2.116676e+03
  1.407872e+01    2.108774e+03
  1.413173e+01    2.103437e+03
  1.418473e+01    2.100313e+03
  1.423773e+01    2.095033e+03
  1.429074e+01    2.088691e+03
  1.434374e+01    2.086476e+03
  1.439675e+01    2.080727e+03
  1.444975e+01    2.078738e+03
  1.450276e+01    2.073144e+03
  1.455576e+01    2.067903e+03
  1.460876e+01    2.066032e+03
  1.466177e+01    2.062381e+03
  1.471477e+01    2.063281e+03
  1.476778e+01    2.064361e+03
  1.482078e+01    2.062761e+03
  1.487378e+01    2.056612e+03
  1.492679e+01    2.053135e+03
  1.497979e+01    2.048335e+03
  1.503280e+01    2.046989e+03
  1.508580e+01    2.043297e+03
  1.513880e+01    2.041677e+03
  1.519181e+01    2.047942e+03
  1.524481e+01    2.071024e+03
  1.529782e+01    2.050584e+03
  1.535082e+01    2.041105e+03
  1.540382e+01    2.036006e+03
  1.545683e+01    2.026862e+03
  1.550983e+01    2.029915e+03
  1.556284e+01    2.027643e+03
  1.561584e+01    2.020652e+03
  1.566885e+01    2.014769e+03
  1.572185e+01    2.014362e+03
  1.577485e+01    2.013080e+03
  1.582786e+01    2.008355e+03
  1.588086e+01    2.004917e+03
  1.593387e+01    2.003163e+03
  1.598687e+01    1.999116e+03
  1.603987e+01    1.990541e+03
  1.609288e+01    1.982511e+03
  1.614588e+01    1.975105e+03
  1.619889e+01    1.978656e+03
  1.625189e+01    1.982252e+03
  1.630489e+01    1.978742e+03
  1.635790e+01    1.975765e+03
  1.641090e+01    1.971847e+03
  1.646391e+01    1.964661e+03
  1.651691e+01    1.964589e+03
  1.656992e+01    1.958918e+03
  1.662292e+01    1.953226e+03
  1.667592e+01    1.952432e+03
  1.672893e+01    1.948904e+03
  1.678193e+01    1.949252e+03
  1.683494e+01    1.944616e+03
  1.688794e+01    1.944108e+03
  1.694094e+01    1.941222e+03
  1.699395e+01    1.936888e+03
  1.704695e+01    1.934314e+03
  1.709996e+01    1.930052e+03
  1.715296e+01    1.926543e+03
  1.720596e+01    1.922455e+03
  1.725897e+01    1.920162e+03
  1.731197e+01    1.916908e+03
  1.736498e+01    1.910618e+03
  1.741798e+01    1.908639e+03
  1.747098e+01    1.907191e+03
  1.752399e+01    1.905152e+03
  1.757699e+01    1.900161e+03
  1.763000e+01    1.894428e+03
  1.768300e+01    1.891069e+03
  1.773601e+01    1.888281e+03
  1.778901e+01    1.883008e+03
  1.784201e+01    1.875854e+03
  1.789502e+01    1.873620e+03
  1.794802e+01    1.869561e+03
  1.800103e+01    1.866601e+03
  1.805403e+01    1.863116e+03
  1.810703e+01    1.857110e+03
  1.816004e+01    1.852841e+03
  1.821304e+01    1.851734e+03
  1.826605e+01    1.854615e+03
  1.831905e+01    1.845186e+03
  1.837205e+01    1.842471e+03
  1.842506e+01    1.838325e+03
  1.847806e+01    1.836805e+03
  1.853107e+01    1.836714e+03
  1.858407e+01    1.833978e+03
  1.863708e+01    1.834717e+03
  1.869008e+01    1.848339e+03
  1.874308e+01    1.839008e+03
  1.879609e+01    1.832219e+03
  1.884909e+01    1.827805e+03
  1.890210e+01    1.823577e+03
  1.895510e+01    1.816765e+03
  1.900810e+01    1.815735e+03
  1.906111e+01    1.807404e+03
  1.911411e+01    1.802376e+03
  1.916712e+01    1.797997e+03
  1.922012e+01    1.794176e+03
  1.927312e+01    1.786927e+03
  1.932613e+01    1.783716e+03
  1.937913e+01    1.777711e+03
  1.943214e+01    1.773887e+03
  1.948514e+01    1.768469e+03
  1.953814e+01    1.763531e+03
  1.959115e+01    1.760454e+03
  1.964415e+01    1.754001e+03
  1.969716e+01    1.750032e+03
  1.975016e+01    1.745061e+03
  1.980317e+01    1.741895e+03
  1.985617e+01    1.736959e+03
  1.990917e+01    1.731383e+03
  1.996218e+01    1.725931e+03
  2.001518e+01    1.720782e+03
  2.006819e+01    1.713509e+03
  2.012119e+01    1.708346e+03
  2.017419e+01    1.704181e+03
  2.022720e+01    1.696122e+03
  2.028020e+01    1.690421e+03
  2.033321e+01    1.684356e+03
  2.038621e+01    1.680317e+03
  2.043921e+01    1.676073e+03
  2.049222e+01    1.670612e+03
  2.054522e+01    1.666881e+03
  2.059823e+01    1.661082e+03
  2.065123e+01    1.654372e+03
  2.070424e+01    1.651880e+03
  2.075724e+01    1.651401e+03
  2.081024e+01    1.656885e+03
  2.086325e+01    1.648383e+03
  2.091625e+01    1.631554e+03
  2.096926e+01    1.617357e+03
  2.102226e+01    1.605130e+03
  2.107526e+01    1.597806e+03
  2.112827e+01    1.586626e+03
  2.118127e+01    1.579180e+03
  2.123428e+01    1.569616e+03
  2.128728e+01    1.560442e+03
  2.134028e+01    1.552044e+03
  2.139329e+01    1.540422e+03
  2.144629e+01    1.531263e+03
  2.149930e+01    1.522641e+03
  2.155230e+01    1.515137e+03
  2.160530e+01    1.507453e+03
  2.165831e+01    1.498832e+03
  2.171131e+01    1.491357e+03
  2.176432e+01    1.486033e+03
  2.181732e+01    1.475372e+03
  2.187033e+01    1.466455e+03
  2.192333e+01    1.459654e+03
  2.197633e+01    1.450782e+03
  2.202934e+01    1.443281e+03
  2.208234e+01    1.431756e+03
  2.213535e+01    1.424644e+03
  2.218835e+01    1.415693e+03
  2.224135e+01    1.406888e+03
  2.229436e+01    1.399908e+03
  2.234736e+01    1.393743e+03
  2.240037e+01    1.382170e+03
  2.245337e+01    1.374987e+03
  2.250637e+01    1.367151e+03
  2.255938e+01    1.360122e+03
  2.261238e+01    1.361844e+03
  2.266539e+01    1.363682e+03
  2.271839e+01    1.365067e+03
  2.277140e+01    1.364834e+03
  2.282440e+01    1.361785e+03
  2.287740e+01    1.360546e+03
  2.293041e+01    1.360054e+03
  2.298341e+01    1.358714e+03
  2.303642e+01    1.358913e+03
  2.308942e+01    1.356268e+03
  2.314242e+01    1.354323e+03
  2.319543e+01    1.351500e+03
  2.324843e+01    1.345325e+03
  2.330144e+01    1.345037e+03
  2.335444e+01    1.342543e+03
  2.340744e+01    1.340585e+03
  2.346045e+01    1.341202e+03
  2.351345e+01    1.337495e+03
  2.356646e+01    1.331984e+03
  2.361946e+01    1.331915e+03
  2.367246e+01    1.332066e+03
  2.372547e+01    1.327630e+03
  2.377847e+01    1.322969e+03
  2.383148e+01    1.318105e+03
  2.388448e+01    1.312641e+03
  2.393749e+01    1.310485e+03
  2.399049e+01    1.306344e+03
  2.404349e+01    1.305401e+03
  2.409650e+01    1.298567e+03
  2.414950e+01    1.294893e+03
  2.420251e+01    1.286061e+03
  2.425551e+01    1.282640e+03
  2.430851e+01    1.278797e+03
  2.436152e+01    1.271729e+03
  2.441452e+01    1.264830e+03
  2.446753e+01    1.260708e+03
  2.452053e+01    1.252849e+03
  2.457353e+01    1.245983e+03
  2.462654e+01    1.246500e+03
  2.467954e+01    1.237342e+03
  2.473255e+01    1.228149e+03
  2.478555e+01    1.217533e+03
  2.483855e+01    1.206025e+03
  2.489156e+01    1.199955e+03
  2.494456e+01    1.190631e+03
  2.499757e+01    1.182136e+03
  2.505057e+01    1.172478e+03
  2.510358e+01    1.167043e+03
  2.515658e+01    1.161495e+03
  2.520958e+01    1.158403e+03
  2.526259e+01    1.151175e+03
  2.531559e+01    1.143236e+03
  2.536860e+01    1.141817e+03
  2.542160e+01    1.136459e+03
  2.547460e+01    1.129150e+03
  2.552761e+01    1.116891e+03
  2.558061e+01    1.114952e+03
  2.563362e+01    1.111758e+03
  2.568662e+01    1.105193e+03
  2.573962e+01    1.096559e+03
  2.579263e+01    1.090531e+03
  2.584563e+01    1.081803e+03
  2.589864e+01    1.079208e+03
  2.595164e+01    1.074855e+03
  2.600465e+01    1.071091e+03
  2.605765e+01    1.070316e+03
  2.611065e+01    1.069061e+03
  2.616366e+01    1.072008e+03
  2.621666e+01    1.059774e+03
  2.626967e+01    1.043802e+03
  2.632267e+01    1.048935e+03
  2.637567e+01    1.039098e+03
  2.642868e+01    1.024123e+03
  2.648168e+01    9.973458e+02
